# omega;Arpes occ;Arpes tot
-15;4.43583098126901e-07;5.90406292869406e-07
-14.990625;4.5741194980926e-07;5.84593655658611e-07
-14.98125;4.69524829433148e-07;5.78172158009749e-07
-14.971875;4.79820397660967e-07;5.71194936246274e-07
-14.9625;4.88212792092306e-07;5.63719775812551e-07
-14.953125;4.94632384202615e-07;5.55808658541996e-07
-14.94375;4.9902638987001e-07;5.47527263046978e-07
-14.934375;5.01359337745984e-07;5.38944434000076e-07
-14.925;5.01613406208573e-07;5.30131651926745e-07
-14.915625;4.99788587588777e-07;5.21162444648887e-07
-14.90625;4.95902722711957e-07;5.12111811196917e-07
-14.896875;4.8999136531022e-07;5.03055609122227e-07
-14.8875;4.8210751445326e-07;4.94069961618952e-07
-14.878125;4.72321181491581e-07;4.85230636615528e-07
-14.86875;4.60718821409416e-07;4.76612441558832e-07
-14.859375;4.47402622124226e-07;4.68288624772242e-07
-14.85;4.32489659257197e-07;4.6033028659375e-07
-14.840625;4.16110917868747e-07;4.5280580109411e-07
-14.83125;3.98410206363736e-07;4.45780276543241e-07
-14.821875;3.79542946253902e-07;4.39315020398656e-07
-14.8125;3.59674875200123e-07;4.33467053772006e-07
-14.803125;3.38980645166767e-07;4.2828863821696e-07
-14.79375;3.17642359994946e-07;4.23826865881416e-07
-14.784375;2.95848036861244e-07;4.20123274307994e-07
-14.775;2.73790013385139e-07;4.17213501372904e-07
-14.765625;2.51663325897011e-07;4.15127003469501e-07
-14.75625;2.29664055350347e-07;4.13886812422112e-07
-14.746875;2.07987663311364e-07;4.13509345262447e-07
-14.7375;1.86827331213072e-07;4.14004267352578e-07
-14.728125;1.6637231544705e-07;4.15374407987885e-07
-14.71875;1.46806339521658e-07;4.17615740482507e-07
-14.709375;1.2830602235496e-07;4.20717402374458e-07
-14.7;1.11039367240836e-07;4.24661776913416e-07
-14.690625;9.51643281105225e-08;4.29424637599999e-07
-14.68125;8.08274503036043e-08;4.34975330602994e-07
-14.671875;6.81626122067749e-08;4.41277022045509e-07
-14.6625;5.72898702518169e-08;4.48286986879985e-07
-14.653125;4.83144165787941e-08;4.55956944821254e-07
-14.64375;4.13256726060306e-08;4.64233457266527e-07
-14.634375;3.63964980632278e-08;4.73058334517597e-07
-14.625;3.35825577558726e-08;4.823691216027e-07
-14.615625;3.29218143445464e-08;4.92099577285468e-07
-14.60625;3.44341898945744e-08;5.02180219813878e-07
-14.596875;3.81213651043022e-08;5.12538876918279e-07
-14.5875;4.3966741054621e-08;5.23101264772612e-07
-14.578125;5.19355509536597e-08;5.33791585745902e-07
-14.56875;6.19751305750714e-08;5.44533137123691e-07
-14.559375;7.40153386295545e-08;5.55248927743281e-07
-14.55;8.79691262557405e-08;5.65862299293944e-07
-14.540625;1.03733249882037e-07;5.76297540160269e-07
-14.53125;1.21189122858882e-07;5.86480499139592e-07
-14.521875;1.40203799769937e-07;5.96339182596671e-07
-14.5125;1.60631081564642e-07;6.05804335787861e-07
-14.503125;1.82312736545233e-07;6.14810002525524e-07
-14.49375;2.05079822835302e-07;6.23294058321694e-07
-14.484375;2.28754104901481e-07;6.31198714811171e-07
-14.475;2.53149551599567e-07;6.38470986097901e-07
-14.465625;2.78073899836824e-07;6.45063122269645e-07
-14.45625;3.03330273193752e-07;6.50932991804322e-07
-14.446875;3.28718844618306e-07;6.56044429152053e-07
-14.4375;3.54038523680212e-07;6.60367526933827e-07
-14.428125;3.79088660742921e-07;6.63878887042031e-07
-14.41875;4.03670733770344e-07;6.66561794826652e-07
-14.409375;4.27590051529837e-07;6.6840638350546e-07
-14.4;4.5065738504341e-07;6.69409689408964e-07
-14.390625;4.72690595994106e-07;6.69575704092704e-07
-14.38125;4.93516165407762e-07;6.68915316513585e-07
-14.371875;5.12970692699395e-07;6.67446255127486e-07
-14.3625;5.30902277515804e-07;6.65192925756618e-07
-14.353125;5.47171822736642e-07;6.62186225417875e-07
-14.34375;5.61654223169707e-07;6.58463285923662e-07
-14.334375;5.74239444475771e-07;6.54067184384347e-07
-14.325;5.84833465880439e-07;6.49046581994151e-07
-14.315625;5.93359092279791e-07;6.43455334707968e-07
-14.30625;5.99756628311467e-07;6.37352056666648e-07
-14.296875;6.03984396857195e-07;6.30799638423735e-07
-14.2875;6.06019109281794e-07;6.2386473618951e-07
-14.278125;6.05856079383218e-07;6.1661722635659e-07
-14.26875;6.03509279731842e-07;6.09129633367916e-07
-14.259375;5.99011239437522e-07;6.01476537878077e-07
-14.25;5.92412778740366e-07;5.93733958809038e-07
-14.240625;5.83782596307038e-07;5.85978730781898e-07
-14.23125;5.7320670000061e-07;5.78287877105095e-07
-14.221875;5.60787683052662e-07;5.70737959602503e-07
-14.2125;5.4664387090807e-07;5.63404459117017e-07
-14.203125;5.30908321512608e-07;5.56361138889279e-07
-14.19375;5.13727709768057e-07;5.49679444646987e-07
-14.184375;4.95261073335897e-07;5.43427884876974e-07
-14.175;4.75678488381255e-07;5.37671487610137e-07
-14.165625;4.55159605326869e-07;5.32471227852857e-07
-14.15625;4.33892142899574e-07;5.27883535098313e-07
-14.146875;4.1207026967118e-07;5.23959788498638e-07
-14.1375;3.89892971948534e-07;5.2074590809084e-07
-14.128125;3.67562341577813e-07;5.18281935342583e-07
-14.11875;3.45281856586709e-07;5.16601699225077e-07
-14.109375;3.23254635247285e-07;5.157325057221e-07
-14.1;3.01681703542251e-07;5.15694906830642e-07
-14.090625;2.80760263341409e-07;5.16502492837284e-07
-14.08125;2.60681999117489e-07;5.1816176400359e-07
-14.071875;2.41631431569517e-07;5.20672054604907e-07
-14.0625;2.23784321012477e-07;5.24025506327403e-07
-14.053125;2.0730614901571e-07;5.28207109260562e-07
-14.04375;1.9235068441865e-07;5.33194798270763e-07
-14.034375;1.79058646755422e-07;5.38959605898311e-07
-14.025;1.67556479814042e-07;5.45465876385495e-07
-14.015625;1.57955239668051e-07;5.52671525516877e-07
-14.00625;1.50349619122132e-07;5.60528360774215e-07
-13.996875;1.44817108771964e-07;5.68982457688001e-07
-13.9875;1.41417296138234e-07;5.77974562388002e-07
-13.978125;1.40191327370869e-07;5.87440566967655e-07
-13.96875;1.41161516022481e-07;5.97312000441014e-07
-13.959375;1.44331120440788e-07;6.07516580766772e-07
-13.95;1.4968426655975e-07;6.17978764553475e-07
-13.940625;1.57186063151765e-07;6.28620374730753e-07
-13.93125;1.66782843840773e-07;6.39361198388719e-07
-13.921875;1.78402603525559e-07;6.50119649421595e-07
-13.9125;1.91955558197981e-07;6.60813398400163e-07
-13.903125;2.07334892245553e-07;6.71360061864509e-07
-13.89375;2.24417624248825e-07;6.8167784733195e-07
-13.884375;2.43065626797907e-07;6.91686226612521e-07
-13.875;2.63126771583744e-07;7.01306581954986e-07
-13.865625;2.84436200735403e-07;7.10462856238255e-07
-13.85625;3.06817703337114e-07;7.19082165441173e-07
-13.846875;3.30085195400328e-07;7.27095403543786e-07
-13.8375;3.54044286085353e-07;7.34437810475395e-07
-13.828125;3.78493915753045e-07;7.41049506707761e-07
-13.81875;4.03228056338879e-07;7.46875993787757e-07
-13.809375;4.2803745661119e-07;7.51868610286384e-07
-13.8;4.52711417681498e-07;7.5598494301696e-07
-13.790625;4.7703958531217e-07;7.59189188872938e-07
-13.78125;5.00813742767802e-07;7.61452465784793e-07
-13.771875;5.23829587818628e-07;7.62753062889783e-07
-13.7625;5.45888481688162e-07;7.63076644576424e-07
-13.753125;5.66799152233688e-07;7.62416382889353e-07
-13.74375;5.86379338994e-07;7.60773042147729e-07
-13.734375;6.04457361313623e-07;7.58154988648118e-07
-13.725;6.20873610255993e-07;7.54578160602803e-07
-13.715625;6.35481920757591e-07;7.50065942583801e-07
-13.70625;6.48150859766554e-07;7.44649025388647e-07
-13.696875;6.58764861878344e-07;7.38365156959726e-07
-13.6875;6.6722526159126e-07;7.3125888352832e-07
-13.678125;6.7345115689741e-07;7.23381189210033e-07
-13.66875;6.77380146092546e-07;7.14789125082547e-07
-13.659375;6.78968896339668e-07;7.0554535736927e-07
-13.65;6.78193553131879e-07;6.95717684298938e-07
-13.640625;6.75049989892917e-07;6.85378505903023e-07
-13.63125;6.69553884472546e-07;6.74604256451047e-07
-13.621875;6.61740632447679e-07;6.63474799430161e-07
-13.6125;6.51665092531e-07;6.52072802899884e-07
-13.603125;6.394011607775e-07;6.404830755051e-07
-13.59375;6.25041188668541e-07;6.28791895845499e-07
-13.584375;6.08695243202555e-07;6.17086324951812e-07
-13.575;5.9049021170375e-07;6.05453508844518e-07
-13.565625;5.70568762028532e-07;5.9397997833246e-07
-13.55625;5.49088170394647e-07;5.8275095386876e-07
-13.546875;5.26219024240496e-07;5.71849663625686e-07
-13.5375;5.0214380228396e-07;5.61356663104906e-07
-13.528125;4.77055355843757e-07;5.51349186667459e-07
-13.51875;4.51155303653559e-07;5.41900522466761e-07
-13.509375;4.2465233937637e-07;5.33079412576112e-07
-13.5;3.97760482168935e-07;5.24949489352525e-07
-13.490625;3.70697283436234e-07;5.17568763770262e-07
-13.48125;3.43681986202684e-07;5.10989134120553e-07
-13.471875;3.16933684473961e-07;5.05255973433453e-07
-13.4625;2.90669460742605e-07;5.00407734718045e-07
-13.453125;2.65102559746306e-07;4.96475648245612e-07
-13.44375;2.40440570463885e-07;4.93483441998951e-07
-13.434375;2.16883665700084e-07;4.91447148151576e-07
-13.425;1.94622898805631e-07;4.9037495843348e-07
-13.415625;1.73838569448197e-07;4.90267144824648e-07
-13.40625;1.54698688891401e-07;4.91116051002684e-07
-13.396875;1.3735753201526e-07;4.92906136570722e-07
-13.3875;1.21954316443395e-07;4.95614096083302e-07
-13.378125;1.08612003681347e-07;4.99209041244258e-07
-13.36875;9.74362284710245e-08;5.03652734107696e-07
-13.359375;8.85143820946591e-08;5.08899892521349e-07
-13.35;8.19148504186283e-08;5.14898553293127e-07
-13.340625;7.76864048060757e-08;5.21590484665268e-07
-13.33125;7.58577588899996e-08;5.28911651100963e-07
-13.321875;7.64373016517191e-08;5.36792733323626e-07
-13.3125;7.94130019360572e-08;5.45159692286797e-07
-13.303125;8.4752476920556e-08;5.53934363427335e-07
-13.29375;9.24032421161791e-08;5.63035095573881e-07
-13.284375;1.02293135911918e-07;5.7237742284973e-07
-13.275;1.14330899311131e-07;5.81874748455383e-07
-13.265625;1.2840693195823e-07;5.9143906168568e-07
-13.25625;1.44394197360295e-07;6.00981659576556e-07
-13.246875;1.62149286998518e-07;6.1041388541573e-07
-13.2375;1.81513610335924e-07;6.19647855197458e-07
-13.228125;2.02314733179189e-07;6.28597194637401e-07
-13.21875;2.24367822750702e-07;6.3717775494426e-07
-13.209375;2.47477214781641e-07;6.45308325215095e-07
-13.2;2.71438056671644e-07;6.52911304170371e-07
-13.190625;2.96038051802686e-07;6.59913365090268e-07
-13.18125;3.2105925538372e-07;6.66246071524151e-07
-13.171875;3.46279933906866e-07;6.71846468637191e-07
-13.1625;3.71476447208598e-07;6.76657617495667e-07
-13.153125;3.96425161113919e-07;6.80629093425734e-07
-13.14375;4.20904362005751e-07;6.83717429094775e-07
-13.134375;4.44696151498159e-07;6.85886497796685e-07
-13.125;4.67588318540637e-07;6.87107841857556e-07
-13.115625;4.8937616976333e-07;6.87360943686588e-07
-13.10625;5.09864292068614e-07;6.86633424659591e-07
-13.096875;5.28868240155016e-07;6.84921178434622e-07
-13.0875;5.46216140792047e-07;6.82228444914942e-07
-13.078125;5.61750189557366e-07;6.78567809936442e-07
-13.06875;5.75328026176766e-07;6.7396013690464e-07
-13.059375;5.86823987549526e-07;6.68434430316013e-07
-13.05;5.96130221149297e-07;6.62027637592991e-07
-13.040625;6.03157642631564e-07;6.54784375063394e-07
-13.03125;6.07836741968222e-07;6.46756598954271e-07
-13.021875;6.10118222079073e-07;6.38003213139663e-07
-13.0125;6.09973469374528e-07;6.28589616609051e-07
-13.003125;6.0739484255922e-07;6.18587196367229e-07
-12.99375;6.02395791116577e-07;6.0807276987223e-07
-12.984375;5.95010789906853e-07;5.97127983803683e-07
-12.975;5.85295098688793e-07;5.85838668225772e-07
-12.965625;5.73324337412523e-07;5.74294152338434e-07
-12.95625;5.59193895172609e-07;5.62586555184674e-07
-12.946875;5.43018164939433e-07;5.50810043734278e-07
-12.9375;5.24929617556886e-07;5.39060080491326e-07
-12.928125;5.05077716922194e-07;5.27432646279986e-07
-12.91875;4.83627690778713e-07;5.16023467969601e-07
-12.909375;4.60759165793542e-07;5.04927235972946e-07
-12.9;4.36664673784247e-07;4.94236833669843e-07
-12.890625;4.11548047818345e-07;4.84042575375024e-07
-12.88125;3.85622718473999e-07;4.7443146523757e-07
-12.871875;3.59109924194343e-07;4.65486478814533e-07
-12.8625;3.3223685136629e-07;4.57285874597765e-07
-12.853125;3.05234721116676e-07;4.49902544077223e-07
-12.84375;2.78336837110655e-07;4.43403400911914e-07
-12.834375;2.51776610394114e-07;4.37848820900493e-07
-12.825;2.25785582278922e-07;4.33292127073168e-07
-12.815625;2.00591455456867e-07;4.2977913857413e-07
-12.80625;1.76416157637495e-07;4.27347773166384e-07
-12.796875;1.53473944582264e-07;4.26027714334498e-07
-12.7875;1.31969572342254e-07;4.25840152225412e-07
-12.778125;1.12096538258893e-07;4.26797578414528e-07
-12.76875;9.40354217180397e-08;4.28903669470967e-07
-12.759375;7.79523242472155e-08;4.3215322312257e-07
-12.75;6.39974368707913e-08;4.3653218854505e-07
-12.740625;5.23037322139636e-08;4.42017748045257e-07
-12.73125;4.29858086847709e-08;4.48578488411725e-07
-12.721875;3.61388798469782e-08;4.56174632652793e-07
-12.7125;3.18379363941774e-08;4.64758346461808e-07
-12.703125;3.01370681953816e-08;4.7427411157637e-07
-12.69375;3.10689721224038e-08;4.84659159748404e-07
-12.684375;3.46446343024782e-08;4.95843975796987e-07
-12.675;4.08532006746505e-08;5.07752849495129e-07
-12.665625;4.96620305585992e-08;5.20304485403648e-07
-12.65625;6.10169396878228e-08;5.33412663159738e-07
-12.646875;7.48426203499673e-08;5.46986932518257e-07
-12.6375;9.10432485111857e-08;5.6093335323861e-07
-12.628125;1.09503267406048e-07;5.75155266985638e-07
-12.61875;1.30088333625775e-07;5.89554086280148e-07
-12.609375;1.52646432621771e-07;6.04030110974499e-07
-12.6;1.77009143270434e-07;6.18483354864426e-07
-12.590625;2.02993047706324e-07;6.32814372769332e-07
-12.58125;2.30401265516431e-07;6.46925093920733e-07
-12.571875;2.59025117113952e-07;6.60719642996262e-07
-12.5625;2.88645877314889e-07;6.74105143047581e-07
-12.553125;3.19036630538202e-07;6.86992506479614e-07
-12.54375;3.49964188807752e-07;6.9929718300757e-07
-12.534375;3.81191079147114e-07;7.1093989269155e-07
-12.525;4.12477558627059e-07;7.2184729301551e-07
-12.515625;4.43583665487249e-07;7.31952628750518e-07
-12.50625;4.74271263567953e-07;7.41196301214267e-07
-12.496875;5.04306089890487e-07;7.4952640252852e-07
-12.4875;5.33459757886739e-07;7.56899175298774e-07
-12.478125;5.61511730873729e-07;7.63279413602021e-07
-12.46875;5.88251214222093e-07;7.68640788674892e-07
-12.459375;6.13478988257058e-07;7.72966106651848e-07
-12.45;6.37009129102384e-07;7.76247491908245e-07
-12.440625;6.5867063027498e-07;7.78486490594967e-07
-12.43125;6.78308895062163e-07;7.79694097152193e-07
-12.421875;6.95787097167722e-07;7.79890708407072e-07
-12.4125;7.10987382186969e-07;7.79105985547566e-07
-12.403125;7.2381191959925e-07;7.77378651247782e-07
-12.39375;7.34183785416227e-07;7.74756210523022e-07
-12.384375;7.42047658468478e-07;7.71294584376025e-07
-12.375;7.47370342064055e-07;7.67057683879055e-07
-12.365625;7.50141095571477e-07;7.62116914320285e-07
-12.35625;7.50371775291042e-07;7.56550607184661e-07
-12.346875;7.4809677342136e-07;7.50443399233075e-07
-12.3375;7.43372782365391e-07;7.43885555774417e-07
-12.328125;7.36278345448332e-07;7.36972234756277e-07
-12.31875;7.26913237002695e-07;7.298027193615e-07
-12.309375;7.15397645549977e-07;7.22479598677908e-07
-12.3;7.01871192955078e-07;7.15107931217252e-07
-12.290625;6.86491771828196e-07;7.07794367331347e-07
-12.28125;6.69434233162801e-07;7.00646268651844e-07
-12.271875;6.50888916893284e-07;6.93770804388796e-07
-12.2625;6.31060054117125e-07;6.87274053338207e-07
-12.253125;6.10164037762946e-07;6.81260103859994e-07
-12.24375;5.88427593000346e-07;6.7583017057606e-07
-12.234375;5.66085837756571e-07;6.71081718521904e-07
-12.225;5.43380291446875e-07;6.67107631465268e-07
-12.215625;5.20556795476699e-07;6.63995394713611e-07
-12.20625;4.97863409238781e-07;6.61826329235308e-07
-12.196875;4.75548274124428e-07;6.60674869369948e-07
-12.1875;4.53857471622477e-07;6.60607892674914e-07
-12.178125;4.33032887532233e-07;6.61684103129539e-07
-12.16875;4.13310111943139e-07;6.63953485524751e-07
-12.159375;3.9491638676059e-07;6.67456828196406e-07
-12.15;3.78068610965274e-07;6.72225310768382e-07
-12.140625;3.62971431655221e-07;6.78280171915697e-07
-12.13125;3.49815436291669e-07;6.85632461933362e-07
-12.121875;3.38775459153504e-07;6.94282871876641e-07
-12.1125;3.30009004196959e-07;7.0422164200678e-07
-12.103125;3.2365483375192e-07;7.1542856976309e-07
-12.09375;3.19831688060498e-07;7.27873085263054e-07
-12.084375;3.18637189365407e-07;7.41514425697569e-07
-12.075;3.20146908320479e-07;7.56301883447326e-07
-12.065625;3.24413629364226e-07;7.72175147343677e-07
-12.05625;3.3146679196562e-07;7.890647119513e-07
-12.046875;3.41312144359537e-07;8.06892376322002e-07
-12.0375;3.53931580912783e-07;8.25571802440883e-07
-12.028125;3.69283199333801e-07;8.45009157906205e-07
-12.01875;3.87301543112367e-07;8.65103807900582e-07
-12.009375;4.07898060343183e-07;8.85749079690747e-07
-12;4.30961742721918e-07;9.06833064794321e-07
-11.990625;4.56359977937649e-07;9.2823948467811e-07
-11.98125;4.83939568225851e-07;9.49848582125588e-07
-11.971875;5.1352793793518e-07;9.71538050358503e-07
-11.9625;5.44934507875106e-07;9.93183990089024e-07
-11.953125;5.77952225677903e-07;1.01466188190874e-06
-11.94375;6.12359234696898e-07;1.03584756060663e-06
-11.934375;6.47920681601883e-07;1.05661820170143e-06
-11.925;6.84390639564449e-07;1.07685330098105e-06
-11.915625;7.21514122888453e-07;1.09643563003536e-06
-11.90625;7.59029188477944e-07;1.11525217281375e-06
-11.896875;7.96669107141363e-07;1.13319504162316e-06
-11.8875;8.34164576908428e-07;1.15016234237562e-06
-11.878125;8.71245960411591e-07;1.16605899767501e-06
-11.86875;9.07645543521488e-07;1.18079752591517e-06
-11.859375;9.43099769774372e-07;1.19429874754782e-06
-11.85;9.77351461125533e-07;1.20649244332229e-06
-11.840625;1.01015197198792e-06;1.21731792084177e-06
-11.83125;1.04126330150251e-06;1.22672453221276e-06
-11.821875;1.07046009346357e-06;1.23467208197384e-06
-11.8125;1.09753156423231e-06;1.24113118200641e-06
-11.803125;1.12228328327139e-06;1.24608348826246e-06
-11.79375;1.14453884799068e-06;1.24952187923934e-06
-11.784375;1.16414138652386e-06;1.25145051561307e-06
-11.775;1.18095491694692e-06;1.25188482891927e-06
-11.765625;1.19486552251859e-06;1.25085140341136e-06
-11.75625;1.20578235022037e-06;1.24838777774401e-06
-11.746875;1.21363841182313e-06;1.24454214693491e-06
-11.7375;1.21839118710635e-06;1.23937298042155e-06
-11.728125;1.22002302450573e-06;1.23294855735316e-06
-11.71875;1.21854133012787e-06;1.2253464177001e-06
-11.709375;1.21397854015462e-06;1.21665272757815e-06
-11.7;1.20639189008111e-06;1.20696158393741e-06
-11.690625;1.19586297335435e-06;1.19637425196877e-06
-11.68125;1.18249708549673e-06;1.1849983295347e-06
-11.671875;1.16642236948022e-06;1.17294686282257e-06
-11.6625;1.14778877221994e-06;1.16033742165532e-06
-11.653125;1.12676680552936e-06;1.14729112625808e-06
-11.64375;1.10354613645275e-06;1.13393164249961e-06
-11.634375;1.07833400815142e-06;1.12038415849902e-06
-11.625;1.05135351028024e-06;1.10677433794457e-06
-11.615625;1.02284171815527e-06;1.09322728007366e-06
-11.60625;9.9304769269268e-07;1.07986645880623e-06
-11.596875;9.62230399547051e-07;1.06681270334741e-06
-11.5875;9.30656511758122e-07;1.05418316267521e-06
-11.578125;8.98598173219521e-07;1.0420903353879e-06
-11.56875;8.66330681609161e-07;1.03064109823879e-06
-11.559375;8.34130167978062e-07;1.01993581440483e-06
-11.55;8.02271241754577e-07;1.01006746325253e-06
-11.540625;7.710246593411e-07;1.0011208516514e-06
-11.53125;7.4065501944594e-07;9.93171879405794e-07
-11.521875;7.1141849890895e-07;9.86286885062321e-07
-11.5125;6.83560666080424e-07;9.8052206256053e-07
-11.503125;6.57314373631219e-07;9.75922966345861e-07
-11.49375;6.32897764540024e-07;9.72524110591959e-07
-11.484375;6.10512392013657e-07;9.70348650341768e-07
-11.475;5.90341480376e-07;9.69408159110677e-07
-11.465625;5.7254834323044e-07;9.69702511112756e-07
-11.45625;5.57274968511082e-07;9.71219861782156e-07
-11.446875;5.44640782725949e-07;9.73936722787839e-07
-11.4375;5.34741601933891e-07;9.77818134480207e-07
-11.428125;5.27648796012012e-07;9.82817948265588e-07
-11.41875;5.23408647873015e-07;9.88879199128021e-07
-11.409375;5.22041941874125e-07;9.95934571802872e-07
-11.4;5.23543753770034e-07;1.00390695665865e-06
