# omega;Arpes occ;Arpes tot
-15;5.28958080105951e-07;7.02601043334075e-07
-14.990625;5.40537007453241e-07;6.9326685119835e-07
-14.98125;5.50186542399751e-07;6.82753192971477e-07
-14.971875;5.57836904181111e-07;6.71160413906918e-07
-14.9625;5.63435439941099e-07;6.58598072349271e-07
-14.953125;5.66947103168832e-07;6.45184047496201e-07
-14.94375;5.68354774359503e-07;6.31043565615388e-07
-14.934375;5.67659430749739e-07;6.16308164772037e-07
-14.925;5.64880178379623e-07;6.01114634154184e-07
-14.915625;5.60054108437509e-07;5.85603873811474e-07
-14.90625;5.53236022467469e-07;5.69919749596726e-07
-14.896875;5.44497990440184e-07;5.54207900526368e-07
-14.8875;5.33928779826144e-07;5.38614558439152e-07
-14.878125;5.21633128960976e-07;5.23285339425778e-07
-14.86875;5.07730892394782e-07;5.08364053045481e-07
-14.859375;4.92356058791563e-07;4.93991527746729e-07
-14.85;4.75655647370843e-07;4.80304459274798e-07
-14.840625;4.57788491065691e-07;4.67434289046829e-07
-14.83125;4.38923929053298e-07;4.55506143791098e-07
-14.821875;4.19240398650246e-07;4.44637808860565e-07
-14.8125;3.98923962651018e-07;4.34938782303105e-07
-14.803125;3.78166758201963e-07;4.26509378421056e-07
-14.79375;3.57165411035603e-07;4.1943993562868e-07
-14.784375;3.36119401590283e-07;4.13810091429362e-07
-14.775;3.15229406554398e-07;4.09688145463439e-07
-14.765625;2.94695640471029e-07;4.07130535014542e-07
-14.75625;2.74716195995231e-07;4.06181401503265e-07
-14.746875;2.55485405057194e-07;4.06872263579064e-07
-14.7375;2.37192233714013e-07;4.09221798299033e-07
-14.728125;2.20018723907709e-07;4.13235732195687e-07
-14.71875;2.0413850206543e-07;4.18906852293026e-07
-14.709375;1.89715353736081e-07;4.26215114865735e-07
-14.7;1.76901887747447e-07;4.35127871575647e-07
-14.690625;1.65838304034474e-07;4.4560021369854e-07
-14.68125;1.56651263900992e-07;4.57575409802068e-07
-14.671875;1.49452883653935e-07;4.70985457931419e-07
-14.6625;1.44339856320214e-07;4.85751732063538e-07
-14.653125;1.41392704713912e-07;5.01785720925611e-07
-14.64375;1.40675191235045e-07;5.18989873740321e-07
-14.634375;1.42233857623833e-07;5.37258495871017e-07
-14.625;1.46097737778348e-07;5.56478760457007e-07
-14.615625;1.52278206407559e-07;5.76531746399244e-07
-14.60625;1.60769007400636e-07;5.97293572141383e-07
-14.596875;1.71546423612334e-07;6.18636556725335e-07
-14.5875;1.84569614598083e-07;6.40430430435331e-07
-14.578125;1.99781102856779e-07;6.62543577033152e-07
-14.56875;2.17107419021354e-07;6.84844297855935e-07
-14.559375;2.36459889688198e-07;7.0720208678297e-07
-14.55;2.57735568268899e-07;7.29488909639721e-07
-14.540625;2.80818298780415e-07;7.51580469821184e-07
-14.53125;3.05579904860782e-07;7.73357461996869e-07
-14.521875;3.318814971244e-07;7.9470679393006e-07
-14.5125;3.59574883401162e-07;8.15522770655262e-07
-14.503125;3.88504075436105e-07;8.35708231992281e-07
-14.49375;4.18506875221924e-07;8.55175632385313e-07
-14.484375;4.49416531692522e-07;8.73848058241088e-07
-14.475;4.81063454395983e-07;8.91660168677045e-07
-14.465625;5.13276966347191e-07;9.08559061675584e-07
-14.45625;5.45887083200712e-07;9.24505043204447e-07
-14.446875;5.78726309383328e-07;9.39472314883583e-07
-14.4375;6.11631428059062e-07;9.5344955407269e-07
-14.428125;6.44445279279122e-07;9.66440401649191e-07
-14.41875;6.77018489513173e-07;9.78463817535179e-07
-14.409375;7.09211189209815e-07;9.8955437276699e-07
-14.4;7.40894626871795e-07;9.99762374086991e-07
-14.390625;7.7195275230053e-07;1.00915393124507e-06
-14.38125;8.02283670244181e-07;1.01781085676483e-06
-14.371875;8.31801037948416e-07;1.02583051093996e-06
-14.3625;8.60435317767919e-07;1.03332548844513e-06
-14.353125;8.88134926782952e-07;1.04042322740644e-06
-14.34375;9.14867247366147e-07;1.04726549815709e-06
-14.334375;9.40619507282056e-07;1.0540078101653e-06
-14.325;9.65399502268924e-07;1.06081870194385e-06
-14.315625;9.89236170869331e-07;1.06787895978154e-06
-14.30625;1.0121800150057e-06;1.07538075094745e-06
-14.296875;1.03430335116172e-06;1.08352667569999e-06
-14.2875;1.05570040186485e-06;1.09252875911891e-06
-14.278125;1.07648722233771e-06;1.10260738156818e-06
-14.26875;1.09680146250135e-06;1.11399015958726e-06
-14.259375;1.11680196647871e-06;1.12691078870546e-06
-14.25;1.13666820680145e-06;1.14160784719723e-06
-14.240625;1.15659957213267e-06;1.15832358600766e-06
-14.23125;1.17681450173777e-06;1.17730271106376e-06
-14.221875;1.19754946971553e-06;1.19879114225648e-06
-14.2125;1.21905784778918e-06;1.22303480940023e-06
-14.203125;1.24160863055057e-06;1.25027844057561e-06
-14.19375;1.26548505629698e-06;1.28076440202962e-06
-14.184375;1.29098310172124e-06;1.31473153662277e-06
-14.175;1.31840992149447e-06;1.3524141017096e-06
-14.165625;1.3480821631765e-06;1.39404070390965e-06
-14.15625;1.38032425763179e-06;1.43983334424282e-06
-14.146875;1.41546661489876e-06;1.49000648341421e-06
-14.1375;1.45384382480312e-06;1.54476623954202e-06
-14.128125;1.49579279680112e-06;1.60430961309883e-06
-14.11875;1.54165091166994e-06;1.66882383733928e-06
-14.109375;1.5917541666603e-06;1.73848579507356e-06
-14.1;1.64643535218777e-06;1.81346155600868e-06
-14.090625;1.70602224881124e-06;1.89390598300718e-06
-14.08125;1.77083588006862e-06;1.97996246030307e-06
-14.071875;1.84118882952035e-06;2.07176271839939e-06
-14.0625;1.91738362307461e-06;2.16942675099102e-06
-14.053125;1.99971120456822e-06;2.27306284231412e-06
-14.04375;2.08844950779578e-06;2.38276768886068e-06
-14.034375;2.18386213762063e-06;2.49862661782572e-06
-14.025;2.28619716997593e-06;2.62071390119268e-06
-14.015625;2.39568607388501e-06;2.74909315057891e-06
-14.00625;2.51254277393408e-06;2.88381780147698e-06
-13.996875;2.63696285230811e-06;3.02493168085959e-06
-13.9875;2.76912288887465e-06;3.1724696251477e-06
-13.978125;2.90917996109056e-06;3.32645818827468e-06
-13.96875;3.05727128598959e-06;3.48691638207184e-06
-13.959375;3.21351402309755e-06;3.65385648697439e-06
-13.95;3.37800521264313e-06;3.82728486730025e-06
-13.940625;3.55082189302043e-06;4.00720286485542e-06
-13.93125;3.73202133020072e-06;4.19360765989907e-06
-13.921875;3.92164142324068e-06;4.38649318834262e-06
-13.9125;4.11970121386069e-06;4.58585101351688e-06
-13.903125;4.32620156045696e-06;4.79167123911555e-06
-13.89375;4.54112590701178e-06;5.00394335634166e-06
-13.884375;4.76444117929633e-06;5.22265709239946e-06
-13.875;4.99609877920407e-06;5.44780320100833e-06
-13.865625;5.23603567527051e-06;5.67937422211877e-06
-13.85625;5.48417556861677e-06;5.91736516613388e-06
-13.846875;5.74043013077472e-06;6.16177414785499e-06
-13.8375;6.00470029483493e-06;6.41260293903429e-06
-13.828125;6.27687758710123e-06;6.66985744076153e-06
-13.81875;6.55684548762898e-06;6.93354807133709e-06
-13.809375;6.84448080323822e-06;7.20369005895061e-06
-13.8;7.13965503865367e-06;7.48030363599084e-06
-13.790625;7.44223575336565e-06;7.76341413182205e-06
-13.78125;7.75208788896653e-06;8.05305195995696e-06
-13.771875;8.06907505157558e-06;8.34925249137795e-06
-13.7625;8.39306073875436e-06;8.65205582821334e-06
-13.753125;8.72390949679759e-06;8.9615064551592e-06
-13.74375;9.06148799548723e-06;9.27765279204078e-06
-13.734375;9.40566600692291e-06;9.60054662472635e-06
-13.725;9.75631728989948e-06;9.93024245070205e-06
-13.715625;1.01133203408534e-05;1.02667966880723e-05
-13.70625;1.04765590487378e-05;1.0610266830958e-05
-13.696875;1.0845923190695e-05;1.09607104629829e-05
-13.6875;1.12213088199605e-05;1.13181842307089e-05
-13.678125;1.16026184852978e-05;1.16827426920135e-05
-13.66875;1.1989761327177e-05;1.20544371332131e-05
-13.659375;1.23826530142275e-05;1.24333142927589e-05
-13.65;1.27812155322745e-05;1.28194150453745e-05
-13.640625;1.31853768305276e-05;1.32127730367532e-05
-13.63125;1.35950703143965e-05;1.36134132852361e-05
-13.621875;1.40102342010405e-05;1.40213507576216e-05
-13.6125;1.44308107357028e-05;1.44365889411404e-05
-13.603125;1.48567452695599e-05;1.48591184001626e-05
-13.59375;1.52879852195384e-05;1.52889153564298e-05
-13.584375;1.57244789111227e-05;1.57259402883408e-05
-13.575;1.61661743105666e-05;1.61701365631912e-05
-13.565625;1.6613017660985e-05;1.66214291151011e-05
-13.55625;1.70649520382355e-05;1.7079723182547e-05
-13.546875;1.75219158370758e-05;1.75449031202064e-05
-13.5375;1.79838411912716e-05;1.80168312758967e-05
-13.528125;1.84506523566363e-05;1.84953469721651e-05
-13.51875;1.89222640695124e-05;1.89802655845036e-05
-13.509375;1.93985798826648e-05;1.94713777250046e-05
-13.5;1.98794905106715e-05;1.99684485448196e-05
-13.490625;2.03648721987662e-05;2.04712171742889e-05
-13.48125;2.0854585112737e-05;2.09793962726908e-05
-13.471875;2.13484717975683e-05;2.14926717470491e-05
-13.4625;2.18463556832352e-05;2.20107025813713e-05
-13.453125;2.23480396954349e-05;2.25331208511201e-05
-13.44375;2.28533049429475e-05;2.3059531854591e-05
-13.434375;2.33619095288286e-05;2.35895144237335e-05
-13.425;2.38735874851053e-05;2.41226213762218e-05
-13.415625;2.43880478399942e-05;2.46583801244607e-05
-13.40625;2.49049738465253e-05;2.51962934443048e-05
-13.396875;2.5424022356557e-05;2.57358403824029e-05
-13.3875;2.59448233789948e-05;2.62764773225455e-05
-13.378125;2.64669798126254e-05;2.68176391946596e-05
-13.36875;2.69900673571488e-05;2.73587408094465e-05
-13.359375;2.75136346240047e-05;2.78991783362444e-05
-13.35;2.80372034442997e-05;2.84383309040585e-05
-13.340625;2.85602693670451e-05;2.897556231163e-05
-13.33125;2.90823023567227e-05;2.95102228432595e-05
-13.321875;2.96027476963603e-05;3.00416511873053e-05
-13.3125;3.01210270853651e-05;3.05691764392748e-05
-13.303125;3.06365399212264e-05;3.10921201687375e-05
-13.29375;3.11486647768293e-05;3.16097985580222e-05
-13.284375;3.16567610614956e-05;3.21215245922682e-05
-13.275;3.21601708414878e-05;3.2626610274305e-05
-13.265625;3.26582208364162e-05;3.31243688759353e-05
-13.25625;3.31502245589269e-05;3.36141171920858e-05
-13.246875;3.36354846025679e-05;3.40951778006065e-05
-13.2375;3.41132950408124e-05;3.45668812920821e-05
-13.228125;3.45829439536709e-05;3.50285684862108e-05
-13.21875;3.50437160372508e-05;3.54795925940456e-05
-13.209375;3.54948953058802e-05;3.59193213385992e-05
-13.2;3.59357678379643e-05;3.63471389903062e-05
-13.190625;3.63656245855933e-05;3.67624483434923e-05
-13.18125;3.67837641958701e-05;3.71646725880003e-05
-13.171875;3.71894958514878e-05;3.7553257093184e-05
-13.1625;3.75821420874719e-05;3.79276710684039e-05
-13.153125;3.79610415885792e-05;3.82874091162623e-05
-13.14375;3.83255519365586e-05;3.86319926548333e-05
-13.134375;3.86750522836555e-05;3.8960971201953e-05
-13.125;3.90089459470203e-05;3.92739235223089e-05
-13.115625;3.93266629039683e-05;3.95704586339349e-05
-13.10625;3.96276621610098e-05;3.98502166570948e-05
-13.096875;3.99114339883562e-05;4.01128695101651e-05
-13.0875;4.01775020110953e-05;4.03581214595471e-05
-13.078125;4.04254251328713e-05;4.05857095075456e-05
-13.06875;4.06547992781732e-05;4.07954036249642e-05
-13.059375;4.0865258953253e-05;4.09870068307967e-05
-13.05;4.10564786083733e-05;4.11603551248052e-05
-13.040625;4.12281737870809e-05;4.13153172626589e-05
-13.03125;4.13801020673498e-05;4.1451794396082e-05
-13.021875;4.15120637812272e-05;4.15697195734928e-05
-13.0125;4.16239025127472e-05;4.16690571062502e-05
-13.003125;4.17155053639359e-05;4.17498018115492e-05
-12.99375;4.17868030014404e-05;4.18119781392118e-05
-12.984375;4.18377694732344e-05;4.18556391934462e-05
-12.975;4.18684218058602e-05;4.18808656538017e-05
-12.965625;4.18788193772252e-05;4.18877646068268e-05
-12.95625;4.18690630834386e-05;4.18764683051595e-05
-12.946875;4.18392942964031e-05;4.18471328543215e-05
-12.9375;4.17896936268768e-05;4.17999368511373e-05
-12.928125;4.17204794994877e-05;4.17350799691082e-05
-12.91875;4.16319065549023e-05;4.16527815210859e-05
-12.909375;4.15242638919565e-05;4.15532789932741e-05
-12.9;4.13978731591945e-05;4.14368265756355e-05
-12.890625;4.12530865163928e-05;4.1303693691269e-05
-12.88125;4.10902844791955e-05;4.11541635407759e-05
-12.871875;4.0909873663487e-05;4.09885316699527e-05
-12.8625;4.07122844476344e-05;4.08071045707319e-05
-12.853125;4.04979685701033e-05;4.06101983288017e-05
-12.84375;4.02673966805051e-05;4.03981373215198e-05
-12.834375;4.0021055861151e-05;4.01712529824352e-05
-12.825;3.97594471412541e-05;3.99298826289114e-05
-12.815625;3.94830830158518e-05;3.96743683735258e-05
-12.80625;3.91924849949969e-05;3.94050561132681e-05
-12.796875;3.88881811907066e-05;3.91222946073305e-05
-12.7875;3.85707039723492e-05;3.88264346553586e-05
-12.778125;3.82405876903853e-05;3.85178283561116e-05
-12.76875;3.78983665009489e-05;3.81968284837854e-05
-12.759375;3.75445722894692e-05;3.78637879437969e-05
-12.75;3.71797327221352e-05;3.75190593506164e-05
-12.740625;3.68043694223167e-05;3.71629946836046e-05
-12.73125;3.6418996299818e-05;3.67959450596956e-05
-12.721875;3.60241180235327e-05;3.64182605883656e-05
-12.7125;3.56202286667906e-05;3.60302903266055e-05
-12.703125;3.52078105100991e-05;3.56323823188797e-05
-12.69375;3.47873330279587e-05;3.52248837181312e-05
-12.684375;3.43592520457873e-05;3.48081409894647e-05
-12.675;3.39240090813397e-05;3.43825001763211e-05
-12.665625;3.34820308634342e-05;3.3948307234088e-05
-12.65625;3.30337290342069e-05;3.35059084206252e-05
-12.646875;3.257950002034e-05;3.30556507240056e-05
-12.6375;3.21197250837072e-05;3.25978823362796e-05
-12.628125;3.16547705391054e-05;3.21329531542115e-05
-12.61875;3.11849881241175e-05;3.1661215291597e-05
-12.609375;3.07107155274935e-05;3.11830236074295e-05
-12.6;3.02322770558553e-05;3.06987362321175e-05
-12.590625;2.97499844326792e-05;3.02087150769581e-05
-12.58125;2.92641377095631e-05;2.9713326330622e-05
-12.571875;2.87750262945243e-05;2.92129409216963e-05
-12.5625;2.82829300567275e-05;2.87079349384906e-05
-12.553125;2.77881205211873e-05;2.81986900099461e-05
-12.54375;2.72908621131315e-05;2.7685593615738e-05
-12.534375;2.67914134607659e-05;2.71690393513293e-05
-12.525;2.62900287136468e-05;2.66494270958876e-05
-12.515625;2.57869588876142e-05;2.61271631313232e-05
-12.50625;2.52824531937177e-05;2.56026601487833e-05
-12.496875;2.47767603625182e-05;2.50763371875266e-05
-12.4875;2.42701299177684e-05;2.45486194681586e-05
-12.478125;2.37628134163217e-05;2.40199381360287e-05
-12.46875;2.32550656035738e-05;2.34907298996202e-05
-12.459375;2.27471455100593e-05;2.29614365743556e-05
-12.45;2.22393174374197e-05;2.24325045247582e-05
-12.440625;2.17318518499273e-05;2.19043840052251e-05
-12.43125;2.12250261437127e-05;2.13775284023209e-05
-12.421875;2.07191252943447e-05;2.08523933890363e-05
-12.4125;2.02144423578392e-05;2.03294359724805e-05
-12.403125;1.97112788378803e-05;1.98091134678029e-05
-12.39375;1.92099449028109e-05;1.92918823910471e-05
-12.384375;1.87107594378963e-05;1.8778197263479e-05
-12.375;1.82140499476624e-05;1.82685093608333e-05
-12.365625;1.77201522971029e-05;1.77632654010622e-05
-12.35625;1.72294102925552e-05;1.72629061742505e-05
-12.346875;1.67421750952541e-05;1.67678651377673e-05
-12.3375;1.62588044975888e-05;1.62785669808847e-05
-12.328125;1.57796620254559e-05;1.5795426157979e-05
-12.31875;1.53051159132145e-05;1.53188454260271e-05
-12.309375;1.48355379265105e-05;1.48492143681115e-05
-12.3;1.43713020694737e-05;1.43869079454966e-05
-12.290625;1.39127831595291e-05;1.39322850560778e-05
-12.28125;1.34603553047951e-05;1.3485687144883e-05
-12.271875;1.30143902776434e-05;1.30474368478432e-05
-12.2625;1.2575255815383e-05;1.26178367039377e-05
-12.253125;1.21433138452425e-05;1.21971679304529e-05
-12.24375;1.1718918666413e-05;1.17856892828772e-05
-12.234375;1.13024150800627e-05;1.13836359947281e-05
-12.225;1.08941365251574e-05;1.09912188349185e-05
-12.215625;1.04944031841528e-05;1.06086232548376e-05
-12.20625;1.01035201214974e-05;1.02360086650994e-05
-12.196875;9.72177544700391e-06;9.8735078330233e-06
-12.1875;9.34943852851909e-06;9.52122641167193e-06
-12.178125;8.98675826530503e-06;9.17924260008815e-06
-12.16875;8.63396144919936e-06;8.84760695305697e-06
-12.159375;8.29125122381533e-06;8.52634233543313e-06
-12.15;7.9588056492065e-06;8.21544401728744e-06
-12.140625;7.63677639748035e-06;7.91487992030126e-06
-12.13125;7.32528759185111e-06;7.62459102048462e-06
-12.121875;7.02443479864458e-06;7.34449189265981e-06
-12.1125;6.73428417114833e-06;7.07447139830762e-06
-12.103125;6.45487179060343e-06;6.81439353050186e-06
-12.09375;6.18620316595134e-06;6.56409838065227e-06
-12.084375;5.92825294160738e-06;6.32340325356641e-06
-12.075;5.68096478610353e-06;6.09210389831515e-06
-12.065625;5.44425149543151e-06;5.8699758712013e-06
-12.05625;5.21799528121932e-06;5.65677599715585e-06
-12.046875;5.00204827820823e-06;5.45224394641357e-06
-12.0375;4.79623323534768e-06;5.2561038895265e-06
-12.028125;4.60034442400062e-06;5.06806624850451e-06
-12.01875;4.41414872215272e-06;4.88782950217163e-06
-12.009375;4.23738690313068e-06;4.71508206295206e-06
-12;4.06977508706423e-06;4.54950418304313e-06
-11.990625;3.91100638386716e-06;4.39076990831355e-06
-11.98125;3.76075267744849e-06;4.2385490363388e-06
-11.971875;3.61866656872966e-06;4.09250908412256e-06
-11.9625;3.48438345272379e-06;3.95231724895656e-06
-11.953125;3.35752371443017e-06;3.81764234354418e-06
-11.94375;3.23769502354153e-06;3.68815668733725e-06
-11.934375;3.12449472458169e-06;3.56353795761387e-06
-11.925;3.01751229779501e-06;3.44347097749135e-06
-11.915625;2.91633186270587e-06;3.32764941720585e-06
-11.90625;2.82053471967466e-06;3.21577741281779e-06
-11.896875;2.72970190948106e-06;3.10757109337792e-06
-11.8875;2.64341676236824e-06;3.00275998594276e-06
-11.878125;2.5612674185593e-06;2.90108830407187e-06
-11.86875;2.48284931504534e-06;2.80231611426512e-06
-11.859375;2.40776759560988e-06;2.70622035266781e-06
-11.85;2.33563945321491e-06;2.61259571410377e-06
-11.840625;2.26609635272717e-06;2.52125537027199e-06
-11.83125;2.19878616107828e-06;2.43203156034325e-06
-11.821875;2.13337511389152e-06;2.34477599408129e-06
-11.8125;2.06954966306115e-06;2.25936012545139e-06
-11.803125;2.00701812978472e-06;2.17567523456936e-06
-11.79375;1.94551220896955e-06;2.09363237869114e-06
-11.784375;1.88478826040195e-06;2.01316215833944e-06
-11.775;1.8246284186787e-06;1.93421434569306e-06
-11.765625;1.76484148509065e-06;1.85675734874154e-06
-11.75625;1.70526361097367e-06;1.78077753659916e-06
-11.746875;1.64575875762495e-06;1.70627841776924e-06
-11.7375;1.58621893404552e-06;1.63327968763728e-06
-11.728125;1.52656421356693e-06;1.56181615473919e-06
-11.71875;1.46674252339475e-06;1.49193654954029e-06
-11.709375;1.40672920665383e-06;1.42370222056265e-06
-11.7;1.3465263746794e-06;1.35718574912934e-06
-11.690625;1.28616204620205e-06;1.29246948348717e-06
-11.68125;1.22568907380793e-06;1.22964399187442e-06
-11.671875;1.16518387716335e-06;1.16880646618222e-06
-11.6625;1.10474499776512e-06;1.11005909160502e-06
-11.653125;1.04449147118588e-06;1.05350737882055e-06
-11.64375;9.84561047058222e-07;9.9925848498869e-07
-11.634375;9.25108259125856e-07;9.47419538192257e-07
-11.625;8.6630237062951e-07;8.98095971841257e-07
-11.615625;8.08325214631786e-07;8.51389899254939e-07
-11.60625;7.51368925404171e-07;8.07398510339031e-07
-11.596875;6.9563362152698e-07;7.6621255457028e-07
-11.5875;6.41325007092327e-07;7.279148588198e-07
-11.578125;5.88651969923197e-07;6.92578964190429e-07
-11.56875;5.37824137593622e-07;6.60267820106575e-07
-11.559375;4.89049468216343e-07;6.31032617188047e-07
-11.55;4.42531847322844e-07;6.04911705877223e-07
-11.540625;3.98468747270892e-07;5.81929659890763e-07
-11.53125;3.57048954655051e-07;5.62096460986842e-07
-11.521875;3.18450376432199e-07;5.45406828606168e-07
-11.5125;2.82837963586963e-07;5.3183968804097e-07
-11.503125;2.50361751415294e-07;5.21357792687269e-07
-11.49375;2.2115504948807e-07;5.13907504207119e-07
-11.484375;1.95332779492553e-07;5.09418717454668e-07
-11.475;1.7298998739807e-07;5.07804943290416e-07
-11.465625;1.54200541758597e-07;5.08963552531722e-07
-11.45625;1.39016026467524e-07;5.12776172381814e-07
-11.446875;1.27464837603394e-07;5.19109228702231e-07
-11.4375;1.19551486907887e-07;5.27814630602144e-07
-11.428125;1.1525613717358e-07;5.38730606856653e-07
-11.41875;1.14534346104002e-07;5.51682668413083e-07
-11.409375;1.17317050331293e-07;5.66484695816407e-07
-11.4;1.23510756776304e-07;5.82940140414418e-07
