# omega;Arpes occ;Arpes tot
-15;4.34631912820844e-07;5.43678590836364e-07
-14.990625;4.50381109302969e-07;5.41674989258899e-07
-14.98125;4.64483132126385e-07;5.3926741976612e-07
-14.971875;4.76817438078255e-07;5.36474148307064e-07
-14.9625;4.872783755572e-07;5.33316515823804e-07
-14.953125;4.95776105612446e-07;5.29818789677004e-07
-14.94375;5.02237380555514e-07;5.2600797990324e-07
-14.934375;5.06606182216675e-07;5.21913631602687e-07
-14.925;5.08844230492715e-07;5.17567623868718e-07
-14.915625;5.08931317771102e-07;5.13003912690702e-07
-14.90625;5.06865512386413e-07;5.08258286505146e-07
-14.896875;5.02663187830665e-07;5.03368082027246e-07
-14.8875;4.96358916236804e-07;4.98371914108859e-07
-14.878125;4.88005188782093e-07;4.93309369484463e-07
-14.86875;4.7767199427398e-07;4.88220704292141e-07
-14.859375;4.65446246193428e-07;4.83146535348139e-07
-14.85;4.5143106591721e-07;4.78127525018117e-07
-14.840625;4.35744920902728e-07;4.73204056783961e-07
-14.83125;4.18520644439507e-07;4.68415931323396e-07
-14.821875;3.99904317035756e-07;4.63802042106069e-07
-14.8125;3.80054048499643e-07;4.59400077948206e-07
-14.803125;3.59138639645141e-07;4.55246210698609e-07
-14.79375;3.37336169776222e-07;4.51374819377713e-07
-14.784375;3.14832491646929e-07;4.47818210487588e-07
-14.775;2.91819656945185e-07;4.44606348677536e-07
-14.765625;2.68494297127827e-07;4.41766621613986e-07
-14.75625;2.45055955817297e-07;4.39323611687428e-07
-14.746875;2.21705395974062e-07;4.37298891263544e-07
-14.7375;1.98642894349563e-07;4.35710840208281e-07
-14.728125;1.76066536772208e-07;4.34574485857532e-07
-14.71875;1.54170536278837e-07;4.33901378336054e-07
-14.709375;1.33143573005938e-07;4.33699477393237e-07
-14.7;1.13167181128587e-07;4.33973072825442e-07
-14.690625;9.44142017945191e-08;4.34722742367642e-07
-14.68125;7.70472978313703e-08;4.35945322664268e-07
-14.671875;6.12175598629116e-08;4.37633922522387e-07
-14.6625;4.70632059297832e-08;4.39777957388114e-07
-14.653125;3.47083864393183e-08;4.42363212031592e-07
-14.64375;2.42621174411594e-08;4.45371948230114e-07
-14.634375;1.58173248071145e-08;4.4878300884392e-07
-14.625;9.45004167847298e-09;4.52571989703475e-07
-14.615625;5.21872973756245e-09;4.56711395693916e-07
-14.60625;3.16376774776978e-09;4.61170858500479e-07
-14.596875;3.30707885355773e-09;4.65917355052843e-07
-14.5875;5.65192157353298e-09;4.70915455075867e-07
-14.578125;1.01828347846902e-08;4.76127590425163e-07
-14.56875;1.68657454410339e-08;4.81514340287169e-07
-14.559375;2.56482332299654e-08;4.87034732989115e-07
-14.55;3.6459951291736e-08;4.92646563369736e-07
-14.540625;4.92131989317347e-08;4.98306715966374e-07
-14.53125;6.38036437132791e-08;5.03971504483842e-07
-14.521875;8.011118679301e-08;5.09597012929578e-07
-14.5125;9.80009614581289e-08;5.15139440725828e-07
-14.503125;1.17324460490297e-07;5.20555450058878e-07
-14.49375;1.37920778695581e-07;5.25802510040121e-07
-14.484375;1.59617964510577e-07;5.30839238381548e-07
-14.475;1.82234467963323e-07;5.35625732698703e-07
-14.465625;2.05580669480322e-07;5.40123896882084e-07
-14.45625;2.2946048036798e-07;5.44297746500709e-07
-14.446875;2.53673002787001e-07;5.48113709212702e-07
-14.4375;2.78014230629095e-07;5.5154090000204e-07
-14.428125;3.02278783271158e-07;5.54551386588459e-07
-14.41875;3.26261637795628e-07;5.57120408232954e-07
-14.409375;3.49759893145205e-07;5.59226614920499e-07
-14.4;3.72574477030349e-07;5.60852227048128e-07
-14.390625;3.94511864703963e-07;5.61983220753263e-07
-14.38125;4.15385710826722e-07;5.62609430829181e-07
-14.371875;4.35018465076971e-07;5.62724679443489e-07
-14.3625;4.53242881769623e-07;5.62326826381291e-07
-14.353125;4.69903461354288e-07;5.61417816490683e-07
-14.34375;4.84857787260273e-07;5.60003679115109e-07
-14.334375;4.97977760802982e-07;5.58094512469066e-07
-14.325;5.09150707173762e-07;5.55704412847007e-07
-14.315625;5.18280355922329e-07;5.52851389490481e-07
-14.30625;5.25287687592393e-07;5.49557243621176e-07
-14.296875;5.30111627521472e-07;5.45847411029967e-07
-14.2875;5.32709592183048e-07;5.41750781010895e-07
-14.278125;5.33057878963382e-07;5.37299484325373e-07
-14.26875;5.3115189645014e-07;5.32528654095935e-07
-14.259375;5.27006232546235e-07;5.27476164914432e-07
-14.25;5.20654554536702e-07;5.22182339562806e-07
-14.240625;5.12149355700536e-07;5.16689643715198e-07
-14.23125;5.01561537630648e-07;5.11042364737971e-07
-14.221875;4.88979828639148e-07;5.05286253684151e-07
-14.2125;4.7451006292827e-07;4.99468181995625e-07
-14.203125;4.58274301774142e-07;4.93635762860441e-07
-14.19375;4.40409826255219e-07;4.87836987957474e-07
-14.184375;4.21067977579723e-07;4.82119822003132e-07
-14.175;4.00412914086505e-07;4.76531849661574e-07
-14.165625;3.78620211911473e-07;4.71119865508296e-07
-14.15625;3.55875409564999e-07;4.65929518112134e-07
-14.146875;3.32372422747807e-07;4.61004911212923e-07
-14.1375;3.0831193051673e-07;4.56388272749738e-07
-14.128125;2.8389966341893e-07;4.52119581545992e-07
-14.11875;2.59344668550684e-07;4.48236248834293e-07
-14.109375;2.34857531339731e-07;4.44772792439976e-07
-14.1;2.10648594406326e-07;4.41760559103314e-07
-14.090625;1.86926161124999e-07;4.39227439639091e-07
-14.08125;1.63894722061002e-07;4.37197633142231e-07
-14.071875;1.41753214190366e-07;4.35691434668388e-07
-14.0625;1.2069331480598e-07;4.34725044060038e-07
-14.053125;1.00897801443178e-07;4.34310415790095e-07
-14.04375;8.25389833530206e-08;4.34455138603785e-07
-14.034375;6.57772196617901e-08;4.35162349248233e-07
-14.025;5.07595378805124e-08;4.3643068537577e-07
-14.015625;3.76183576139725e-08;4.38254264856268e-07
-14.00625;2.64703444709606e-08;4.40622709739414e-07
-13.996875;1.74153941288242e-08;4.43521210803405e-07
-13.9875;1.05357499555596e-08;4.4693060757052e-07
-13.978125;5.8952812845306e-09;4.50827532002549e-07
-13.96875;3.53890651407779e-09;4.55184561342682e-07
-13.959375;3.4921858656363e-09;4.59970429041802e-07
-13.95;5.76106060771925e-09;4.65150232664684e-07
-13.940625;1.0331789206863e-08;4.70685722659531e-07
-13.93125;1.7171014103569e-08;4.76535566147718e-07
-13.921875;2.62260300927387e-08;4.82655684295544e-07
-13.9125;3.74251829662553e-08;4.88999567072146e-07
-13.903125;5.06784664640824e-08;4.955186619204e-07
-13.89375;6.58782462554636e-08;5.02162733634054e-07
-13.884375;8.29001511535407e-08;5.08880271588306e-07
-13.875;1.01604101519276e-07;5.15618890201807e-07
-13.865625;1.21835478328818e-07;5.22325757016897e-07
-13.85625;1.43426411655362e-07;5.28948007558726e-07
-13.846875;1.66197188233955e-07;5.35433179078868e-07
-13.8375;1.89957761601861e-07;5.4172963563838e-07
-13.828125;2.14509350225012e-07;5.47786989394687e-07
-13.81875;2.39646115286196e-07;5.53556517042326e-07
-13.809375;2.65156900497718e-07;5.58991563848538e-07
-13.8;2.90827019211949e-07;5.64047934052133e-07
-13.790625;3.1644007592114e-07;5.68684262962101e-07
-13.78125;3.41779804714599e-07;5.7286237055628e-07
-13.771875;3.66631909230989e-07;5.76547585434325e-07
-13.7625;3.90785890089464e-07;5.79709052798563e-07
-13.753125;4.14036842251398e-07;5.82320001389401e-07
-13.74375;4.36187209194342e-07;5.84357990844913e-07
-13.734375;4.5704847362826e-07;5.85805111654294e-07
-13.725;4.76442785185938e-07;5.86648171115509e-07
-13.715625;4.94204479574522e-07;5.86878808063785e-07
-13.70625;5.10181524981681e-07;5.86493614356093e-07
-13.696875;5.24236824238937e-07;5.85494168009077e-07
-13.6875;5.36249422261626e-07;5.83887073397163e-07
-13.678125;5.46115550121872e-07;5.81683914814311e-07
-13.66875;5.53749548526781e-07;5.7890121226267e-07
-13.659375;5.59084624934541e-07;5.75560305218113e-07
-13.65;5.62073454195443e-07;5.71687212450727e-07
-13.640625;5.62688618888476e-07;5.67312447836188e-07
-13.63125;5.60922875299948e-07;5.62470800069892e-07
-13.621875;5.56789252937031e-07;5.57201073270826e-07
-13.6125;5.50320981453015e-07;5.51545802026647e-07
-13.603125;5.41571240195704e-07;5.45550919975741e-07
-13.59375;5.30612743966884e-07;5.39265410911892e-07
-13.584375;5.17537161521699e-07;5.32740929470161e-07
-13.575;5.02454368232821e-07;5.2603139600231e-07
-13.565625;4.85491542948658e-07;5.19192570030749e-07
-13.55625;4.66792118829211e-07;5.12281608404335e-07
-13.546875;4.4651459582727e-07;5.05356613163332e-07
-13.5375;4.24831215283352e-07;4.98476156201631e-07
-13.528125;4.01926520141619e-07;4.91698809620675e-07
-13.51875;3.77995812175812e-07;4.85082670479042e-07
-13.509375;3.53243505321624e-07;4.78684881860241e-07
-13.5;3.27881404262032e-07;4.72561160027833e-07
-13.490625;3.02126922283795e-07;4.66765341010687e-07
-13.48125;2.7620123329327e-07;4.61348917168764e-07
-13.471875;2.50327407155488e-07;4.56360619355201e-07
-13.4625;2.24728504845809e-07;4.5184598598783e-07
-13.453125;1.99625693544237e-07;4.47846991071177e-07
-13.44375;1.75236352638461e-07;4.44401665777724e-07
-13.434375;1.51772222123415e-07;4.41543774388445e-07
-13.425;1.29437592355615e-07;4.39302511036223e-07
-13.415625;1.08427548799606e-07;4.37702232981824e-07
-13.40625;8.8926303146161e-08;4.36762239332955e-07
-13.396875;7.11055985306986e-08;4.36496576797998e-07
-13.3875;5.51232316755179e-08;4.36913899073146e-07
-13.378125;4.11216868929078e-08;4.38017368426518e-07
-13.36875;2.92268901689898e-08;4.3980459024306e-07
-13.359375;1.95471108491188e-08;4.42267604803545e-07
-13.35;1.2172012756177e-08;4.45392924353405e-07
-13.340625;7.17185452876908e-09;4.49161608558076e-07
-13.33125;4.59685400605898e-09;4.5354938642365e-07
-13.321875;4.47672868307192e-09;4.5852682829172e-07
-13.3125;6.82040879879866e-09;4.64059561356662e-07
-13.303125;1.16159175608189e-08;4.70108516517334e-07
-13.29375;1.88304372534237e-08;4.76630225455876e-07
-13.284375;2.84105565604057e-08;4.83577157552661e-07
-13.275;4.02826799729772e-08;4.90898079705537e-07
-13.265625;5.4353623732511e-08;4.98538462459075e-07
-13.25625;7.05113704115614e-08;5.06440906890813e-07
-13.246875;8.86259951758485e-08;5.14545606761171e-07
-13.2375;1.08550730283534e-07;5.22790818882596e-07
-13.228125;1.30123192517065e-07;5.31113368314785e-07
-13.21875;1.53166732257411e-07;5.39449155939616e-07
-13.209375;1.77491920680793e-07;5.47733690641738e-07
-13.2;2.02898129246155e-07;5.55902608313964e-07
-13.190625;2.29175228276318e-07;5.6389221455894e-07
-13.18125;2.56105353943209e-07;5.71640008090082e-07
-13.171875;2.83464757519435e-07;5.79085212281506e-07
-13.1625;3.11025694469616e-07;5.86169280626061e-07
-13.153125;3.38558362942048e-07;5.92836400065336e-07
-13.14375;3.65832861466693e-07;5.9903397011993e-07
-13.134375;3.92621144181088e-07;6.04713054930111e-07
-13.125;4.18698970861978e-07;6.09828811928625e-07
-13.115625;4.43847831221405e-07;6.14340893948553e-07
-13.10625;4.67856817205606e-07;6.1821380838169e-07
-13.096875;4.90524434489648e-07;6.21417239497976e-07
-13.0875;5.11660344860973e-07;6.23926337574237e-07
-13.078125;5.31087013335717e-07;6.25721959504989e-07
-13.06875;5.48641244634887e-07;6.26790863009783e-07
-13.059375;5.64175607715362e-07;6.27125854282867e-07
-13.05;5.77559729086607e-07;6.26725892058742e-07
-13.040625;5.88681436507993e-07;6.25596130776403e-07
-13.03125;5.97447757137967e-07;6.23747922605442e-07
-13.021875;6.03785751651006e-07;6.21198765928524e-07
-13.0125;6.07643182121922e-07;6.17972200893077e-07
-13.003125;6.08988998322548e-07;6.14097654442858e-07
-12.99375;6.07813652637941e-07;6.09610236433323e-07
-12.984375;6.04129227572317e-07;6.04550490415497e-07
-12.975;5.97969383985164e-07;5.98964094881765e-07
-12.965625;5.89389117898274e-07;5.92901518175853e-07
-12.95625;5.78464343793211e-07;5.86417638339947e-07
-12.946875;5.65291293653369e-07;5.795713162718e-07
-12.9375;5.4998574474399e-07;5.72424942494998e-07
-12.928125;5.32682076075877e-07;5.65043940817971e-07
-12.91875;5.13532167034464e-07;5.5749625454899e-07
-12.909375;4.92704145942696e-07;5.49851800881958e-07
-12.9;4.70380993770552e-07;5.42181909929699e-07
-12.890625;4.46759021466858e-07;5.34558746297838e-07
-12.88125;4.2204623029379e-07;5.27054722575254e-07
-12.871875;3.96460568355574e-07;5.1974190452046e-07
-12.8625;3.7022809841075e-07;5.12691415722564e-07
-12.853125;3.43581094344091e-07;5.05972848342758e-07
-12.84375;3.16756079738656e-07;4.99653680246934e-07
-12.834375;2.89991824637383e-07;4.93798709785707e-07
-12.825;2.63527322376005e-07;4.88469502959546e-07
-12.815625;2.375997565843e-07;4.83723871842749e-07
-12.80625;2.12442482537999e-07;4.79615373745055e-07
-12.796875;1.88283031937957e-07;4.7619284463633e-07
-12.7875;1.65341170011913e-07;4.73499975117511e-07
-12.778125;1.43827006795352e-07;4.71574912775338e-07
-12.76875;1.23939193724529e-07;4.70449924479383e-07
-12.759375;1.05863207102864e-07;4.70151087403043e-07
-12.75;8.97697468541524e-08;4.70698049546198e-07
-12.740625;7.58132502229194e-08;4.7210382167422e-07
-12.73125;6.4130548990064e-08;4.74374639997848e-07
-12.721875;5.4839664446603e-08;4.77509872524528e-07
-12.7125;4.80387700619961e-08;4.81501988481094e-07
-12.703125;4.38053102748015e-08;4.86336582386495e-07
-12.69375;4.2195303270072e-08;4.91992453175967e-07
-12.684375;4.32428177361369e-08;4.98441746637919e-07
-12.675;4.69596400733931e-08;5.05650146265532e-07
-12.665625;5.33351272497985e-08;5.13577123803095e-07
-12.65625;6.23362546989727e-08;5.22176244572941e-07
-12.646875;7.3907848138334e-08;5.31395515978816e-07
-12.6375;8.79730103468218e-08;5.41177792287399e-07
-12.628125;1.04433734816187e-07;5.51461223880894e-07
-12.61875;1.23171693376352e-07;5.62179741763961e-07
-12.609375;1.44049205792854e-07;5.73263587637614e-07
-12.6;1.6691037320487e-07;5.84639876783134e-07
-12.590625;1.91582371491587e-07;5.96233184411592e-07
-12.58125;2.17876886166325e-07;6.07966166112061e-07
-12.571875;2.45591693324261e-07;6.19760192255989e-07
-12.5625;2.74512349073251e-07;6.3153599539596e-07
-12.553125;3.04413999289315e-07;6.43214335555439e-07
-12.54375;3.35063271586715e-07;6.54716656486884e-07
-12.534375;3.662202559545e-07;6.65965758456509e-07
-12.525;3.97640532801354e-07;6.7688643971946e-07
-12.515625;4.29077256788083e-07;6.87406154723118e-07
-12.50625;4.60283253177609e-07;6.97455625294058e-07
-12.496875;4.91013136762107e-07;7.06969451589274e-07
-12.4875;5.21025404618079e-07;7.15886680403477e-07
-12.478125;5.50084517191516e-07;7.24151348212693e-07
-12.46875;5.77962915097812e-07;7.31712979757636e-07
-12.459375;6.04442992705175e-07;7.38527048431211e-07
-12.45;6.29318974289177e-07;7.44555390609607e-07
-12.440625;6.52398705297816e-07;7.49766566821807e-07
-12.43125;6.73505325863098e-07;7.54136169312223e-07
-12.421875;6.92478824080657e-07;7.57647080179165e-07
-12.4125;7.09177438919285e-07;7.60289655624967e-07
-12.403125;7.23478921516754e-07;7.62061862899354e-07
-12.39375;7.3528163290867e-07;7.62969354438327e-07
-12.384375;7.4450545921293e-07;7.63025465883475e-07
-12.375;7.51092554810436e-07;7.62251162111319e-07
-12.365625;7.55007895568723e-07;7.60674918152758e-07
-12.35625;7.56239640048505e-07;7.5833252998857e-07
-12.346875;7.54799285275541e-07;7.55266869579014e-07
-12.3375;7.50721643024409e-07;7.51527581139682e-07
-12.328125;7.44064595120212e-07;7.47170707788784e-07
-12.31875;7.34908669853554e-07;7.42258278309124e-07
-12.309375;7.23356410746973e-07;7.36857825496918e-07
-12.3;7.09531569596254e-07;7.31041871932595e-07
-12.290625;6.93578104230389e-07;7.24887354668657e-07
-12.28125;6.75659011582948e-07;7.18475023636422e-07
-12.271875;6.55954987596748e-07;7.11888793822271e-07
-12.2625;6.34662941535873e-07;7.05215074451557e-07
-12.253125;6.11994360713964e-07;6.98542068970061e-07
-12.24375;5.88173555430695e-07;6.91959059441725e-07
-12.234375;5.63435774472328e-07;6.85555667296318e-07
-12.225;5.38025248731234e-07;6.79421124839692e-07
-12.215625;5.12193125463312e-07;6.73643526374238e-07
-12.20625;4.86195357479479e-07;6.68309095979675e-07
-12.196875;4.60290539542982e-07;6.63501463653591e-07
-12.1875;4.34737718028017e-07;6.59300958171347e-07
-12.178125;4.09794186144698e-07;6.55783918024933e-07
-12.16875;3.85713295476095e-07;6.530220388254e-07
-12.159375;3.62742295660903e-07;6.51081755599934e-07
-12.15;3.41120213458248e-07;6.50023657311043e-07
-12.140625;3.2107580020538e-07;6.49901949508953e-07
-12.13125;3.02825564287798e-07;6.50763973040822e-07
-12.121875;2.86571903282107e-07;6.52649771367924e-07
-12.1125;2.72501338031849e-07;6.55591710479044e-07
-12.103125;2.60782901659351e-07;6.5961417695395e-07
-12.09375;2.51566648259607e-07;6.64733321283933e-07
-12.084375;2.44982337727121e-07;6.709568829177e-07
-12.075;2.41138275980483e-07;6.78284073707855e-07
-12.065625;2.40120349227401e-07;6.86705542423086e-07
-12.05625;2.41991230941881e-07;6.96203398700927e-07
-12.046875;2.46789799856814e-07;7.06751320094024e-07
-12.0375;2.54530742643776e-07;7.18314717063866e-07
-12.028125;2.65204379023369e-07;7.30850982726152e-07
-12.01875;2.787766764615e-07;7.44309795847441e-07
-12.009375;2.95189488195488e-07;7.58633503656286e-07
-12;3.14360978757154e-07;7.73757553352418e-07
-11.990625;3.36186274378346e-07;7.89611000579025e-07
-11.98125;3.60538289822871e-07;8.0611705960653e-07
-11.971875;3.87268758506381e-07;8.23193711789915e-07
-11.9625;4.16209443905901e-07;8.40754363082491e-07
-11.953125;4.47173522956435e-07;8.58708542762747e-07
-11.94375;4.79957125447973e-07;8.76962629638534e-07
-11.934375;5.14341030533155e-07;8.95420620670773e-07
-11.925;5.50092498528986e-07;9.13984923627097e-07
-11.915625;5.8696721334131e-07;9.32557156460518e-07
-11.90625;6.24711333467623e-07;9.510389640858e-07
-11.896875;6.63063633203873e-07;9.69332847008322e-07
-11.8875;7.01757707556866e-07;9.87342976722049e-07
-11.878125;7.40524222296711e-07;1.00497600244331e-06
-11.86875;7.79093207049733e-07;1.02214185288813e-06
-11.859375;8.17196344544205e-07;1.03875449861791e-06
-11.85;8.54569266970315e-07;1.05473270289164e-06
-11.840625;8.90953805361584e-07;1.07000071502684e-06
-11.83125;9.26100216323139e-07;1.0844889484985e-06
-11.821875;9.59769314055205e-07;1.09813458173059e-06
-11.8125;9.91734547864474e-07;1.11088213534947e-06
-11.803125;1.02178394686067e-06;1.12268396108683e-06
-11.79375;1.04972197428119e-06;1.13350069770277e-06
-11.784375;1.07537122127318e-06;1.14330163294041e-06
-11.775;1.09857396893459e-06;1.15206501560138e-06
-11.765625;1.11919357472423e-06;1.15977827905161e-06
-11.75625;1.13711569029577e-06;1.16643820157218e-06
-11.746875;1.15224928692964e-06;1.17205097811655e-06
-11.7375;1.16452748659009e-06;1.17663221847632e-06
-11.728125;1.17390819209803e-06;1.18020686907926e-06
-11.71875;1.1803745053028e-06;1.1828090530981e-06
-11.709375;1.18393492581187e-06;1.18448182436601e-06
-11.7;1.18462334249237e-06;1.18527685684144e-06
-11.690625;1.18249880806185e-06;1.18525406034429e-06
-11.68125;1.17764509042044e-06;1.18448111160308e-06
-11.671875;1.17017001556822e-06;1.18303292432888e-06
-11.6625;1.16020460984265e-06;1.18099106131491e-06
-11.653125;1.14790203288785e-06;1.17844307923521e-06
-11.64375;1.13343632505108e-06;1.17548181869932e-06
-11.634375;1.11700096912716e-06;1.17220465159356e-06
-11.625;1.09880728382541e-06;1.16871267734127e-06
-11.615625;1.07908266715887e-06;1.16510989674448e-06
-11.60625;1.05806868072235e-06;1.16150233288915e-06
-11.596875;1.03601903325206e-06;1.15799716183781e-06
-11.5875;1.01319742547415e-06;1.15470179168024e-06
-11.578125;9.89875335458834e-07;1.15172297223913e-06
-11.56875;9.66329700230773e-07;1.1491658673124e-06
-11.559375;9.42840573327326e-07;1.14713316963879e-06
-11.55;9.19688725031709e-07;1.14572420101578e-06
-11.540625;8.97153245183581e-07;1.14503405754789e-06
-11.53125;8.75509151544754e-07;1.14515277224776e-06
-11.521875;8.55025018510857e-07;1.1461645237203e-06
-11.5125;8.35960663394522e-07;1.14814688042035e-06
-11.503125;8.18564894131856e-07;1.15117010141611e-06
-11.49375;8.03073352740607e-07;1.15529649979288e-06
-11.484375;7.89706456354682e-07;1.1605798586312e-06
-11.475;7.78667465252781e-07;1.16706491676393e-06
-11.465625;7.70140694602173e-07;1.17478693399832e-06
-11.45625;7.64289882495472e-07;1.18377133355702e-06
-11.446875;7.61256727184259e-07;1.19403341886346e-06
-11.4375;7.61159603603561e-07;1.20557817230472e-06
-11.428125;7.64092487881883e-07;1.21840015053262e-06
-11.41875;7.70124072745018e-07;1.23248346020175e-06
-11.409375;7.792971109353e-07;1.24780182107045e-06
-11.4;7.91627960225164e-07;1.26431871544697e-06
