# omega;Arpes occ;Arpes tot
-15;4.85953028382137e-07;5.92120938424528e-07
-14.990625;5.02552682832666e-07;5.92204446689433e-07
-14.98125;5.1729291522108e-07;5.91494330168906e-07
-14.971875;5.30048955753198e-07;5.89995853503002e-07
-14.9625;5.40712815893683e-07;5.87720830775475e-07
-14.953125;5.49194233328864e-07;5.84687561686271e-07
-14.94375;5.55421457364484e-07;5.80920700109886e-07
-14.934375;5.59341877657832e-07;5.76451069254031e-07
-14.925;5.6092250868671e-07;5.71315452818714e-07
-14.915625;5.60150281342843e-07;5.65556297567416e-07
-14.90625;5.57032190130072e-07;5.59221400413922e-07
-14.896875;5.51595249189467e-07;5.52363523479755e-07
-14.8875;5.43886299220532e-07;5.45039996022144e-07
-14.878125;5.33971626417504e-07;5.37312250683677e-07
-14.86875;5.2193642661287e-07;5.29245337751491e-07
-14.859375;5.07884106091731e-07;5.20907407644073e-07
-14.85;4.91935427233317e-07;5.12369163320911e-07
-14.840625;4.74227498658217e-07;5.03703282809256e-07
-14.83125;4.54912639301255e-07;4.94983841738178e-07
-14.821875;4.34157095340164e-07;4.8628569915802e-07
-14.8125;4.12139653056013e-07;4.77683895796072e-07
-14.803125;3.8905012540934e-07;4.69253024714109e-07
-14.79375;3.65087762568709e-07;4.61066630421528e-07
-14.784375;3.40459567481494e-07;4.53196596189568e-07
-14.775;3.15378541394802e-07;4.45712538958263e-07
-14.765625;2.90061887312929e-07;4.38681236961996e-07
-14.75625;2.64729167195145e-07;4.32166067153425e-07
-14.746875;2.39600438116104e-07;4.26226469848453e-07
-14.7375;2.14894382084433e-07;4.2091744372608e-07
-14.728125;1.908264434418e-07;4.16289074157862e-07
-14.71875;1.67606998302443e-07;4.12386109003795e-07
-14.709375;1.45439554923296e-07;4.09247562423341e-07
-14.7;1.24519012505416e-07;4.06906369472121e-07
-14.690625;1.0502999830398e-07;4.0538909879689e-07
-14.68125;8.7145279407119e-08;4.0471570094818e-07
-14.671875;7.10242800861979e-08;4.04899322956894e-07
-14.6625;5.68117074573313e-08;4.05946169775421e-07
-14.653125;4.4636297581968e-08;4.07855422005672e-07
-14.64375;3.46097069739762e-08;4.10619226895788e-07
-14.634375;2.68255295676038e-08;4.14222715568104e-07
-14.625;2.13584857597595e-08;4.18644118286493e-07
-14.615625;1.82637494112516e-08;4.23854894755961e-07
-14.60625;1.75764615848329e-08;4.29819957955094e-07
-14.596875;1.9311397062414e-08;4.36497928574873e-07
-14.5875;2.34628125900824e-08;4.4384145101937e-07
-14.578125;3.00044631547755e-08;4.51797559365826e-07
-14.56875;3.88897978854036e-08;4.60308090500229e-07
-14.559375;5.00523257649268e-08;4.69310141652612e-07
-14.55;6.3406151868957e-08;4.78736569869518e-07
-14.540625;7.88466778156449e-08;4.88516524148097e-07
-14.53125;9.62514633107487e-08;4.98576016105475e-07
-14.521875;1.1548124117885e-07;5.08838515729239e-07
-14.5125;1.36381074744455e-07;5.1922556952775e-07
-14.503125;1.5878165197854e-07;5.29657439400745e-07
-14.49375;1.82500700784182e-07;5.40053751752964e-07
-14.484375;2.07344518729841e-07;5.50334158073895e-07
-14.475;2.33109602364503e-07;5.60418993944084e-07
-14.465625;2.59584359257146e-07;5.70229939832612e-07
-14.45625;2.86550891859646e-07;5.79690665286697e-07
-14.446875;3.13786840026746e-07;5.88727469229228e-07
-14.4375;3.41067261509512e-07;5.97269893466173e-07
-14.428125;3.68166541271463e-07;6.05251321653444e-07
-14.41875;3.94860292055483e-07;6.12609523259203e-07
-14.409375;4.2092728272577e-07;6.19287210313225e-07
-14.4;4.46151297016216e-07;6.25232498371924e-07
-14.390625;4.70322997716406e-07;6.30399380854769e-07
-14.38125;4.93241689437699e-07;6.34748100172194e-07
-14.371875;5.14717056206359e-07;6.38245526921209e-07
-14.3625;5.34570777074288e-07;6.40865436862348e-07
-14.353125;5.52638060843206e-07;6.42588760994078e-07
-14.34375;5.68769060103307e-07;6.43403761835871e-07
-14.334375;5.82830169046858e-07;6.43306167132867e-07
-14.325;5.94705174368851e-07;6.42299219735027e-07
-14.315625;6.04296265092036e-07;6.4039368266267e-07
-14.30625;6.11524891582653e-07;6.37607778658364e-07
-14.296875;6.16332454133069e-07;6.33967061384257e-07
-14.2875;6.18680827361353e-07;6.29504231836583e-07
-14.278125;6.18552711302039e-07;6.24258892554821e-07
-14.26875;6.15951806291501e-07;6.18277243500124e-07
-14.259375;6.10902809663701e-07;6.11611725694706e-07
-14.25;6.03451228662885e-07;6.04320602352281e-07
-14.240625;5.93663025473004e-07;5.96467499904577e-07
-14.23125;5.81624083907431e-07;5.88120904850658e-07
-14.221875;5.67439498674803e-07;5.79353598840403e-07
-14.2125;5.51232714763052e-07;5.70242083817489e-07
-14.203125;5.33144496722155e-07;5.60865949558339e-07
-14.19375;5.13331761492981e-07;5.51307237003693e-07
-14.184375;4.91966248508528e-07;5.41649740608421e-07
-14.175;4.69233103616763e-07;5.31978350204895e-07
-14.165625;4.45329296834689e-07;5.22378319768052e-07
-14.15625;4.20461985058204e-07;5.12934584460148e-07
-14.146875;3.94846738496077e-07;5.03731023321558e-07
-14.1375;3.6870574217889e-07;4.94849789556779e-07
-14.128125;3.4226589745621e-07;4.86370594552164e-07
-14.11875;3.15756904710992e-07;4.78370048995248e-07
-14.109375;2.89409306321798e-07;4.70921001484006e-07
-14.1;2.63452533551654e-07;4.64091932229024e-07
-14.090625;2.3811294403221e-07;4.57946349845881e-07
-14.08125;2.13611891987383e-07;4.52542249615586e-07
-14.071875;1.90163840813155e-07;4.47931612034328e-07
-14.0625;1.67974521850014e-07;4.44159938417983e-07
-14.053125;1.47239171440708e-07;4.41265849624164e-07
-14.04375;1.28140853544458e-07;4.39280736046439e-07
-14.034375;1.10848883297357e-07;4.38228466442709e-07
-14.025;9.55173664845254e-08;4.3812516217323e-07
-14.015625;8.22838599085735e-08;4.38979025220897e-07
-14.00625;7.12681791753161e-08;4.40790240548628e-07
-13.996875;6.25713534210258e-08;4.43550948489193e-07
-13.9875;5.62747308027713e-08;4.47245264112662e-07
-13.978125;5.24392625458007e-08;4.51849391109745e-07
-13.96875;5.11049488966765e-08;4.5733177741685e-07
-13.959375;5.22904727508789e-08;4.63653359844656e-07
-13.95;5.59929950448625e-08;4.70767837532846e-07
-13.940625;6.2188166734297e-08;4.78622057856945e-07
-13.93125;7.08302836128079e-08;4.87156406172982e-07
-13.921875;8.18526614938032e-08;4.96305299957288e-07
-13.9125;9.51681527967355e-08;5.05997686230992e-07
-13.903125;1.10669877808985e-07;5.16157641432216e-07
-13.89375;1.28232093076495e-07;5.26704965126258e-07
-13.884375;1.47711239056887e-07;5.37555844615887e-07
-13.875;1.68947134455724e-07;5.48623533013888e-07
-13.865625;1.91764319890122e-07;5.59819072823732e-07
-13.85625;2.15973527403798e-07;5.71052022331319e-07
-13.846875;2.41373274821323e-07;5.82231213022695e-07
-13.8375;2.67751566203022e-07;5.93265509410646e-07
-13.828125;2.94887682698874e-07;6.04064571668974e-07
-13.81875;3.22554053397454e-07;6.14539618582092e-07
-13.809375;3.50518187176421e-07;6.24604179012488e-07
-13.8;3.78544649243859e-07;6.34174828334966e-07
-13.790625;4.06397067489532e-07;6.43171902855368e-07
-13.78125;4.3384015014093e-07;6.51520187580522e-07
-13.771875;4.60641697026989e-07;6.5914956465871e-07
-13.7625;4.86574589765372e-07;6.65995632625601e-07
-13.753125;5.11418741381849e-07;6.72000269622788e-07
-13.74375;5.34962991084599e-07;6.77112157857779e-07
-13.734375;5.57006922328094e-07;6.81287241111232e-07
-13.725;5.77362605022931e-07;6.84489145383224e-07
-13.715625;5.95856212229658e-07;6.86689502699305e-07
-13.70625;6.12329550496909e-07;6.87868256626512e-07
-13.696875;6.26641426998484e-07;6.8801384928158e-07
-13.6875;6.38668907243055e-07;6.87123387991569e-07
-13.678125;6.48308389078617e-07;6.8520269341821e-07
-13.66875;6.55476540232428e-07;6.82266318105905e-07
-13.659375;6.60111050499121e-07;6.78337462903581e-07
-13.65;6.62171208794675e-07;6.73447834331677e-07
-13.640625;6.61638303071129e-07;6.67637428104972e-07
-13.63125;6.58515826932021e-07;6.6095424257597e-07
-13.621875;6.52829503542747e-07;6.53453922514872e-07
-13.6125;6.44627119821925e-07;6.45199346029913e-07
-13.603125;6.33978167008816e-07;6.3626013492667e-07
-13.59375;6.20973303058638e-07;6.2671211972606e-07
-13.584375;6.0572363347169e-07;6.16636746944801e-07
-13.575;5.88359813533212e-07;6.06120435238712e-07
-13.565625;5.69030982272352e-07;5.95253886800558e-07
-13.55625;5.47903541193372e-07;5.84131362776609e-07
-13.546875;5.2515978552385e-07;5.72849929706313e-07
-13.5375;5.00996389126709e-07;5.61508666176792e-07
-13.528125;4.75622770404414e-07;5.50207861769238e-07
-13.51875;4.4925935072039e-07;5.39048200168626e-07
-13.509375;4.22135705858238e-07;5.28129930168625e-07
-13.5;3.94488642173674e-07;5.17552037782607e-07
-13.490625;3.66560213666088e-07;5.07411437190204e-07
-13.48125;3.38595673880688e-07;4.97802150496151e-07
-13.471875;3.10841417438606e-07;4.88814539460877e-07
-13.4625;2.8354288512894e-07;4.80534529086961e-07
-13.453125;2.56942498446213e-07;4.73042902407903e-07
-13.44375;2.31277592368816e-07;4.66414599522009e-07
-13.434375;2.0677840155787e-07;4.60718087787378e-07
-13.425;1.8366610005031e-07;4.5601477048913e-07
-13.415625;1.62150908089854e-07;4.52358452702177e-07
-13.40625;1.42430300899874e-07;4.49794875353891e-07
-13.396875;1.24687305254965e-07;4.48361301268469e-07
-13.3875;1.09088930329424e-07;4.48086181696832e-07
-13.378125;9.57847273616055e-08;4.48988893362253e-07
-13.36875;8.49054860793926e-08;4.51079538272659e-07
-13.359375;7.65620976527436e-08;4.54358831657749e-07
-13.35;7.08445857597325e-08;4.58818067354342e-07
-13.340625;6.78213048788119e-08;4.6443915432044e-07
-13.33125;6.75383210795457e-08;4.71194730949379e-07
-13.321875;7.00189884437392e-08;4.79048364400484e-07
-13.3125;7.52637159781875e-08;4.87954824922701e-07
-13.303125;8.32499186710582e-08;4.97860424061537e-07
-13.29375;9.39321725211642e-08;5.08703433642605e-07
-13.284375;1.07242567552338e-07;5.20414577369585e-07
-13.275;1.23091237126494e-07;5.32917571251279e-07
-13.265625;1.41367089801018e-07;5.46129740482213e-07
-13.25625;1.61938712289576e-07;5.59962681644892e-07
-13.246875;1.84655457401603e-07;5.74322984710872e-07
-13.2375;2.09348679316563e-07;5.89112983732146e-07
-13.228125;2.35833142828821e-07;6.04231562918914e-07
-13.21875;2.63908560922238e-07;6.19574980852999e-07
-13.209375;2.93361277882167e-07;6.35037734306492e-07
-13.2;3.23966047450091e-07;6.50513418413687e-07
-13.190625;3.55487934884822e-07;6.65895620530372e-07
-13.18125;3.87684287017663e-07;6.81078799120812e-07
-13.171875;4.20306785322989e-07;6.95959173858064e-07
-13.1625;4.53103535089245e-07;7.10435587382426e-07
-13.153125;4.85821200831785e-07;7.24410362640975e-07
-13.14375;5.18207155222783e-07;7.37790128657963e-07
-13.134375;5.50011617591192e-07;7.50486609311737e-07
-13.125;5.80989778255272e-07;7.62417375341092e-07
-13.115625;6.1090388772828e-07;7.73506556322496e-07
-13.10625;6.39525280587249e-07;7.83685489522837e-07
-13.096875;6.66636326165894e-07;7.92893312174835e-07
-13.0875;6.92032295507386e-07;8.01077498053284e-07
-13.078125;7.15523117962913e-07;8.08194320042843e-07
-13.06875;7.36935009728609e-07;8.14209238892473e-07
-13.059375;7.56111974151521e-07;8.19097217830733e-07
-13.05;7.7291715266362e-07;8.22842963122227e-07
-13.040625;7.87234007074799e-07;8.25441072058292e-07
-13.03125;7.98967338217412e-07;8.26896107794442e-07
-13.021875;8.08044121257476e-07;8.27222588410025e-07
-13.0125;8.1441415601613e-07;8.26444889515142e-07
-13.003125;8.18050516068261e-07;8.24597062302334e-07
-12.99375;8.18949808855577e-07;8.21722571403796e-07
-12.984375;8.17132229358339e-07;8.17873952722756e-07
-12.975;8.12641417769962e-07;8.13112391763779e-07
-12.965625;8.05544107960934e-07;8.07507223553063e-07
-12.95625;7.95929587626395e-07;8.01135368756525e-07
-12.946875;7.83908958552737e-07;7.94080695082025e-07
-12.9375;7.69614212553123e-07;7.86433326096145e-07
-12.928125;7.5319712308349e-07;7.78288882440947e-07
-12.91875;7.34827968646197e-07;7.69747684478533e-07
-12.909375;7.14694096551219e-07;7.60913903432912e-07
-12.9;6.92998333692233e-07;7.5189467980633e-07
-12.890625;6.69957265032623e-07;7.42799211054404e-07
-12.88125;6.45799390603032e-07;7.33737819185172e-07
-12.871875;6.20763175749936e-07;7.24821002275994e-07
-12.8625;5.95095011911044e-07;7.16158480174528e-07
-12.853125;5.69047107005775e-07;7.07858243695697e-07
-12.84375;5.42875320235923e-07;7.00025612050279e-07
-12.834375;5.1683696004706e-07;6.92762310605481e-07
-12.825;4.91188567876997e-07;6.86165569847645e-07
-12.815625;4.66183700092539e-07;6.80327264424854e-07
-12.80625;4.42070734276471e-07;6.75333087012965e-07
-12.796875;4.19090709066151e-07;6.71261771527803e-07
-12.7875;3.97475229998972e-07;6.68184378402712e-07
-12.778125;3.77444442570112e-07;6.66163626593852e-07
-12.76875;3.59205106402371e-07;6.65253310262824e-07
-12.759375;3.42948772118016e-07;6.65497768660238e-07
-12.75;3.28850091266925e-07;6.66931454243294e-07
-12.740625;3.17065258961737e-07;6.695785610192e-07
-12.73125;3.07730619200477e-07;6.73452755123613e-07
-12.721875;3.00961426770405e-07;6.78556980360928e-07
-12.7125;2.9685079774872e-07;6.84883361504226e-07
-12.703125;2.95468834431659e-07;6.9241319381473e-07
-12.69375;2.96861955780893e-07;7.0111702408877e-07
-12.684375;3.01052420720747e-07;7.1095482700842e-07
-12.675;3.08038062034264e-07;7.21876266289895e-07
-12.665625;3.17792224371e-07;7.33821046708257e-07
-12.65625;3.30263916806149e-07;7.46719355848567e-07
-12.646875;3.45378165169409e-07;7.60492378936021e-07
-12.6375;3.63036578032854e-07;7.75052901361245e-07
-12.628125;3.83118114174583e-07;7.90305984803242e-07
-12.61875;4.05480037944059e-07;8.0614970405294e-07
-12.609375;4.29959070896505e-07;8.22475956275342e-07
-12.6;4.56372717373342e-07;8.39171323332698e-07
-12.590625;4.84520761544531e-07;8.56117980812735e-07
-12.58125;5.14186912569551e-07;8.73194654579566e-07
-12.571875;5.45140604388643e-07;8.90277610242579e-07
-12.5625;5.77138906574687e-07;9.07241663777639e-07
-12.553125;6.0992856060186e-07;9.23961220912879e-07
-12.54375;6.43248097404544e-07;9.4031131147514e-07
-12.534375;6.76830044749606e-07;9.56168644029445e-07
-12.525;7.10403177355408e-07;9.71412627308308e-07
-12.515625;7.43694819906438e-07;9.85926404458346e-07
-12.50625;7.76433154726571e-07;9.99597833593854e-07
-12.496875;8.08349545119743e-07;1.01232045685349e-06
-12.4875;8.39180821330893e-07;1.02399441399965e-06
-12.478125;8.68671544575616e-07;1.03452731482728e-06
-12.46875;8.96576191975307e-07;1.04383504589381e-06
-12.459375;9.22661285382759e-07;1.0518425205969e-06
-12.45;9.46707405815418e-07;1.05848435565881e-06
-12.440625;9.68511105928059e-07;1.06370546998448e-06
-12.43125;9.87886686855943e-07;1.0674616003907e-06
-12.421875;1.00466783602328e-06;1.06971973837664e-06
-12.4125;1.01870909350264e-06;1.07045845974696e-06
-12.403125;1.0298871574419e-06;1.0696681749244e-06
-12.39375;1.03810200521805e-06;1.06735128214855e-06
-12.384375;1.04327780985453e-06;1.0635222086257e-06
-12.375;1.0453636639622e-06;1.05820736524234e-06
-12.365625;1.04433409299361e-06;1.05144500055639e-06
-12.35625;1.04018935518642e-06;1.04328494947631e-06
-12.346875;1.03295551545997e-06;1.03378828997547e-06
-12.3375;1.02268432163787e-06;1.023026909292e-06
-12.328125;1.00945283890532e-06;1.01108296575587e-06
-12.31875;9.93362889065055e-07;9.9804827933266e-07
-12.309375;9.74540264272921e-07;9.84023624029858e-07
-12.3;9.53133750585995e-07;9.69117959528626e-07
-12.290625;9.29313941002375e-07;9.53447575088617e-07
-12.28125;9.03271872270169e-07;9.37135184130649e-07
-12.271875;8.75217476446653e-07;9.20308950141482e-07
-12.2625;8.453778789515e-07;9.03101473132519e-07
-12.253125;8.13995538164435e-07;8.85648728322426e-07
-12.24375;7.81326260971179e-07;8.68088979767908e-07
-12.234375;7.47637083522454e-07;8.50561657409466e-07
-12.225;7.13204080678524e-07;8.33206242172901e-07
-12.215625;6.78310063866611e-07;8.16161124082259e-07
-12.20625;6.43242237928502e-07;7.99562479924048e-07
-12.196875;6.08289808493395e-07;7.83543161501284e-07
-12.1875;5.73741568872886e-07;7.68231607593078e-07
-12.178125;5.39883480225161e-07;7.53750783880625e-07
-12.16875;5.06996278021464e-07;7.40217172439801e-07
-12.159375;4.7535311851211e-07;7.27739812971407e-07
-12.15;4.45217276755535e-07;7.16419394192655e-07
-12.140625;4.16839928254908e-07;7.06347415467102e-07
-12.13125;3.90458031681109e-07;6.97605429431261e-07
-12.121875;3.66292328659609e-07;6.90264359062034e-07
-12.1125;3.44545462757676e-07;6.84383896022629e-07
-12.103125;3.2540027487486e-07;6.80012009036264e-07
-12.09375;3.09018236090407e-07;6.77184527738291e-07
-12.084375;2.95538079493653e-07;6.75924844143114e-07
-12.075;2.85074606979981e-07;6.76243704696099e-07
-12.065625;2.77717713069641e-07;6.78139121173543e-07
-12.05625;2.73531601431482e-07;6.81596374833393e-07
-12.046875;2.72554235726257e-07;6.86588141355257e-07
-12.0375;2.74796994470482e-07;6.93074708110579e-07
-12.028125;2.8024457064792e-07;7.01004312974657e-07
-12.01875;2.88855079687296e-07;7.10313569374175e-07
-12.009375;3.00560411082958e-07;7.20928006978634e-07
-12;3.15266784820681e-07;7.32762690314779e-07
-11.990625;3.328555507203e-07;7.45722948133021e-07
-11.98125;3.53184179300495e-07;7.59705170697781e-07
-11.971875;3.7608747031857e-07;7.74597692756655e-07
-11.9625;4.01378956079684e-07;7.90281750481158e-07
-11.953125;4.28852487380807e-07;8.06632499855013e-07
-11.94375;4.58283984269821e-07;8.2352008209511e-07
-11.934375;4.89433352312842e-07;8.40810747457446e-07
-11.925;5.22046539396962e-07;8.58368015357355e-07
-11.915625;5.55857706497745e-07;8.76053851532402e-07
-11.90625;5.90591508258431e-07;8.93729867806856e-07
-11.896875;6.25965464143171e-07;9.11258537702837e-07
-11.8875;6.6169239017027e-07;9.28504397966334e-07
-11.878125;6.97482870791719e-07;9.45335237477455e-07
-11.86875;7.33047768188777e-07;9.61623274523248e-07
-11.859375;7.6810071812644e-07;9.77246283311079e-07
-11.85;8.02360623619283e-07;9.92088696754702e-07
-11.840625;8.35554087981867e-07;1.00604263280126e-06
-11.83125;8.67417813300735e-07;1.01900888887598e-06
-11.821875;8.9770088598918e-07;1.03089783233061e-06
-11.8125;9.26166994215471e-07;1.04163024701621e-06
-11.803125;9.52596490954371e-07;1.05113805915273e-06
-11.79375;9.76788350029682e-07;1.05936500467536e-06
-11.784375;9.98561939251201e-07;1.06626716753e-06
-11.775;1.01775864170502e-06;1.07181343698078e-06
-11.765625;1.03424327916781e-06;1.07598584111696e-06
-11.75625;1.04790534483311e-06;1.07877978060177e-06
-11.746875;1.05866002062494e-06;1.08020413831249e-06
-11.7375;1.06644897797512e-06;1.08028127802172e-06
-11.728125;1.07124095523483e-06;1.07904692946695e-06
-11.71875;1.07303210074085e-06;1.07654995488473e-06
-11.709375;1.07184607425133e-06;1.07285199249893e-06
-11.7;1.06773392111728e-06;1.06802700079212e-06
-11.690625;1.06077370914808e-06;1.06216069332127e-06
-11.68125;1.0510699230318e-06;1.05534985687188e-06
-11.671875;1.03875263230607e-06;1.04770157612079e-06
-11.6625;1.02397644315351e-06;1.03933237184247e-06
-11.653125;1.00691922533202e-06;1.03036724379792e-06
-11.64375;9.87780640873102e-07;1.02093863537698e-06
-11.634375;9.66780475295225e-07;1.01118533157295e-06
-11.625;9.44156791179579e-07;1.00125128870599e-06
-11.615625;9.20163925447195e-07;9.91284425006045e-07
-11.60625;8.95070319584662e-07;9.81435344612821e-07
-11.596875;8.69156249061292e-07;9.71856063706877e-07
-11.5875;8.4271140997395e-07;9.62698676791664e-07
-11.578125;8.16032449981464e-07;9.5411405346499e-07
-11.56875;7.89420396475742e-07;9.46250496260182e-07
-11.559375;7.63178068451011e-07;9.3925244852281e-07
-11.55;7.37607436507696e-07;9.33259192863704e-07
-11.540625;7.13006996828097e-07;9.28403607570417e-07
-11.53125;6.89669162147016e-07;9.24810956744662e-07
-11.521875;6.67877685710189e-07;9.22597740783956e-07
-11.5125;6.47905159929367e-07;9.2187060811802e-07
-11.503125;6.30010592370125e-07;9.22725344932304e-07
-11.49375;6.14437097409043e-07;9.25245955418308e-07
-11.484375;6.01409704888612e-07;9.29503824353502e-07
-11.475;5.91133317442957e-07;9.35556980755979e-07
-11.465625;5.83790834310806e-07;9.4344947564586e-07
-11.45625;5.79541455331352e-07;9.53210872034424e-07
-11.446875;5.78519177594543e-07;9.64855846915686e-07
-11.4375;5.80831496278504e-07;9.7838391296046e-07
-11.428125;5.86558339264093e-07;9.93779277031874e-07
-11.41875;5.95751216783443e-07;1.01101081667579e-06
-11.409375;6.08432625400938e-07;1.03003218714972e-06
-11.4;6.2459567666599e-07;1.05078205068017e-06
