# omega;Arpes occ;Arpes tot
-15;4.76390708926006e-07;5.94814140837602e-07
-14.990625;4.91786224824881e-07;5.92075166072867e-07
-14.98125;5.05415608908659e-07;5.88697848779079e-07
-14.971875;5.17165015409622e-07;5.8471145860809e-07
-14.9625;5.26936413893384e-07;5.80150206116236e-07
-14.953125;5.34648444087895e-07;5.75052982898636e-07
-14.94375;5.40237120806109e-07;5.69463051263621e-07
-14.934375;5.43656391776334e-07;5.63427696612663e-07
-14.925;5.44878560153074e-07;5.56997873528509e-07
-14.915625;5.43894526817413e-07;5.50227784454087e-07
-14.90625;5.40713897843439e-07;5.43174461264741e-07
-14.896875;5.35364913868161e-07;5.35897298079958e-07
-14.8875;5.27894240394764e-07;5.28457592017747e-07
-14.878125;5.18366583775018e-07;5.20918041571191e-07
-14.86875;5.06864163656068e-07;5.13342246028275e-07
-14.859375;4.93486033882571e-07;5.05794195744917e-07
-14.85;4.78347260368362e-07;4.98337756228972e-07
-14.840625;4.615779554858e-07;4.91036144924202e-07
-14.83125;4.433221963035e-07;4.83951430209781e-07
-14.821875;4.23736808193948e-07;4.77144015984804e-07
-14.8125;4.0299005291691e-07;4.70672159153822e-07
-14.803125;3.81260201712152e-07;4.64591480031916e-07
-14.79375;3.58734039609758e-07;4.58954519464967e-07
-14.784375;3.35605284004513e-07;4.53810302260859e-07
-14.775;3.12072940458018e-07;4.49203923665513e-07
-14.765625;2.88339622141448e-07;4.45176183330463e-07
-14.75625;2.64609828708424e-07;4.4176324142281e-07
-14.746875;2.41088208871345e-07;4.38996313013114e-07
-14.7375;2.17977819236435e-07;4.36901401565544e-07
-14.728125;1.95478393777597e-07;4.35499072711836e-07
-14.71875;1.73784645398212e-07;4.34804280113408e-07
-14.709375;1.53084599465581e-07;4.3482622176421e-07
-14.7;1.3355798412037e-07;4.35568248485814e-07
-14.690625;1.15374696482252e-07;4.37027827724479e-07
-14.68125;9.86933406043129e-08;4.391965400468e-07
-14.671875;8.36598662588319e-08;4.42060135484374e-07
-14.6625;7.04063108446911e-08;4.4559862932557e-07
-14.653125;5.90496551996713e-08;4.49786443911324e-07
-14.64375;4.96908169717472e-08;4.5459261178593e-07
-14.634375;4.24137624157837e-08;4.59980991952811e-07
-14.625;3.72847795200695e-08;4.65910568174067e-07
-14.615625;3.43518811053316e-08;4.72335746289265e-07
-14.60625;3.36443826893629e-08;4.79206725615827e-07
-14.596875;3.51726230675333e-08;4.86469882713024e-07
-14.5875;3.8927854697704e-08;4.94068194721404e-07
-14.578125;4.48822907472638e-08;5.01941692047506e-07
-14.56875;5.29893190110507e-08;5.10027935833717e-07
-14.559375;6.31838738100999e-08;5.1826251591177e-07
-14.55;7.53829659804265e-08;5.26579568902341e-07
-14.540625;8.94863646486028e-08;5.349123041797e-07
-14.53125;1.05377428008936e-07;5.43193546630148e-07
-14.521875;1.2292407564645e-07;5.51356279138464e-07
-14.5125;1.41979891541695e-07;5.593341869664e-07
-14.503125;1.62385352749296e-07;5.67062199373929e-07
-14.49375;1.83969168807177e-07;5.74477020551106e-07
-14.484375;2.06549725172067e-07;5.81517652170327e-07
-14.475;2.29936617254847e-07;5.88125894364658e-07
-14.465625;2.53932258836397e-07;5.94246831358324e-07
-14.45625;2.78333554464473e-07;5.99829284348662e-07
-14.446875;3.02933623922574e-07;6.04826244715962e-07
-14.4375;3.27523558908177e-07;6.09195268712489e-07
-14.428125;3.51894203766514e-07;6.12898845667017e-07
-14.41875;3.75837924996865e-07;6.15904702816754e-07
-14.409375;3.99150403728662e-07;6.18186114251123e-07
-14.4;4.21632360203906e-07;6.19722111292454e-07
-14.390625;4.43091280698423e-07;6.20497700937407e-07
-14.38125;4.6334304670387e-07;6.20503982265393e-07
-14.371875;4.82213538458908e-07;6.1973827110733e-07
-14.3625;4.99540121593911e-07;6.18204126472049e-07
-14.353125;5.1517305641564e-07;6.15911355630076e-07
-14.34375;5.28976792266657e-07;6.12875953665929e-07
-14.334375;5.40831151360124e-07;6.09120009044573e-07
-14.325;5.50632374033898e-07;6.04671538394658e-07
-14.315625;5.5829403060491e-07;5.99564289136806e-07
-14.30625;5.63747791590813e-07;5.93837492103896e-07
-14.296875;5.66944037423626e-07;5.87535562185324e-07
-14.2875;5.67852314800996e-07;5.80707763797586e-07
-14.278125;5.66461630265028e-07;5.73407831859453e-07
-14.26875;5.62780579726105e-07;5.65693556780715e-07
-14.259375;5.56837311426871e-07;5.57626337168041e-07
-14.25;5.48679317836075e-07;5.49270694539782e-07
-14.240625;5.38373071740001e-07;5.40693768732588e-07
-14.23125;5.26003496702397e-07;5.31964794131714e-07
-14.221875;5.11673273024308e-07;5.23154536857642e-07
-14.2125;4.95502005454822e-07;5.14334745501279e-07
-14.203125;4.77625233662408e-07;5.05577568052321e-07
-14.19375;4.5819331749494e-07;4.96954986990942e-07
-14.184375;4.37370172290664e-07;4.88538216654892e-07
-14.175;4.15331925957029e-07;4.80397159460614e-07
-14.165625;3.9226542410651e-07;4.72599812660769e-07
-14.15625;3.68366685251093e-07;4.65211739124692e-07
-14.146875;3.43839232842903e-07;4.58295505624882e-07
-14.1375;3.18892406098918e-07;4.51910201583854e-07
-14.128125;2.93739580558976e-07;4.46110928950624e-07
-14.11875;2.68596374444881e-07;4.40948361510374e-07
-14.109375;2.43678820470096e-07;4.36468312979532e-07
-14.1;2.19201544627955e-07;4.32711369238273e-07
-14.090625;1.95375939155346e-07;4.29712531839938e-07
-14.08125;1.7240836883533e-07;4.27500927467542e-07
-14.071875;1.5049842004568e-07;4.26099560464826e-07
-14.0625;1.29837195261361e-07;4.25525104409518e-07
-14.053125;1.10605683660465e-07;4.25787754549478e-07
-14.04375;9.29732137942032e-08;4.26891128368498e-07
-14.034375;7.70960030438431e-08;4.28832219234831e-07
-14.025;6.31158171461866e-08;4.31601407743047e-07
-14.015625;5.11587448681453e-08;4.35182517456596e-07
-14.00625;4.13341116221553e-08;4.39552932538916e-07
-13.996875;3.37335319198725e-08;4.44683772498775e-07
-13.9875;2.84301036742614e-08;4.50540098186706e-07
-13.978125;2.54777702061147e-08;4.57081195522766e-07
-13.96875;2.49108339933774e-08;4.64260882514361e-07
-13.959375;2.6743645954641e-08;4.72027885410596e-07
-13.95;3.0970446139299e-08;4.80326223555353e-07
-13.940625;3.75654058536883e-08;4.89095683169918e-07
-13.93125;4.64828034415774e-08;4.98272274388579e-07
-13.921875;5.76574042689276e-08;5.0778876765014e-07
-13.9125;7.10049723285601e-08;5.1757521159448e-07
-13.903125;8.64229804501928e-08;5.27559527120391e-07
-13.89375;1.03791447544723e-07;5.37668073922992e-07
-13.884375;1.22973940912931e-07;5.47826262860641e-07
-13.875;1.43818713818019e-07;5.57959158754126e-07
-13.865625;1.66159980114727e-07;5.67992106713054e-07
-13.85625;1.89819304025279e-07;5.77851338409814e-07
-13.846875;2.14607103839055e-07;5.87464589691987e-07
-13.8375;2.40324252036756e-07;5.96761699868101e-07
-13.828125;2.66763756866384e-07;6.05675196616617e-07
-13.81875;2.93712515749858e-07;6.14140863080471e-07
-13.809375;3.20953122557336e-07;6.22098279499543e-07
-13.8;3.48265713498926e-07;6.29491335231575e-07
-13.790625;3.7542983791788e-07;6.36268708384669e-07
-13.78125;4.02226336324622e-07;6.42384307863601e-07
-13.771875;4.28439209697069e-07;6.47797670005399e-07
-13.7625;4.5385746579176e-07;6.52474319408771e-07
-13.753125;4.78276924949998e-07;6.56386071125753e-07
-13.74375;5.01501971636764e-07;6.59511293228969e-07
-13.734375;5.23347232051324e-07;6.61835103326297e-07
-13.725;5.43639177948246e-07;6.63349531460722e-07
-13.715625;5.62217611424769e-07;6.64053592560316e-07
-13.70625;5.7893706653409e-07;6.63953347337803e-07
-13.696875;5.93668057049119e-07;6.63061855681651e-07
-13.6875;6.06298219960126e-07;6.61399120409938e-07
-13.678125;6.16733286511201e-07;6.58991926946885e-07
-13.66875;6.2489792427062e-07;6.55873668985865e-07
-13.659375;6.30736405537885e-07;6.52084088268974e-07
-13.65;6.34213111668155e-07;6.4766897558691e-07
-13.640625;6.35312871583097e-07;6.42679816358735e-07
-13.63125;6.34041120029424e-07;6.37173388499676e-07
-13.621875;6.3042388532638e-07;6.31211312585105e-07
-13.6125;6.24507600982677e-07;6.24859567536865e-07
-13.603125;6.16358737056933e-07;6.18187954983722e-07
-13.59375;6.0606326656231e-07;6.11269540733589e-07
-13.584375;5.93725963954036e-07;6.04180063875785e-07
-13.575;5.79469538422818e-07;5.96997318732933e-07
-13.565625;5.63433612273098e-07;5.89800516970909e-07
-13.55625;5.45773556500361e-07;5.82669636289036e-07
-13.546875;5.26659191135062e-07;5.75684764323186e-07
-13.5375;5.06273352000013e-07;5.68925424985101e-07
-13.528125;4.8481034869699e-07;5.62469918588243e-07
-13.51875;4.62474325749467e-07;5.56394666049616e-07
-13.509375;4.39477526610117e-07;5.50773560567821e-07
-13.5;4.16038491376307e-07;5.45677337529106e-07
-13.490625;3.92380201688544e-07;5.41172978861447e-07
-13.48125;3.68728169226817e-07;5.37323120890532e-07
-13.471875;3.45308517395857e-07;5.34185526008151e-07
-13.4625;3.22346032586728e-07;5.3181255638355e-07
-13.453125;3.00062246494672e-07;5.30250726556503e-07
-13.44375;2.78673520145666e-07;5.29540267337535e-07
-13.434375;2.58389181019002e-07;5.29714763349996e-07
-13.425;2.39409713488345e-07;5.30800831546233e-07
-13.415625;2.21925014945588e-07;5.32817855215517e-07
-13.40625;2.06112749959581e-07;5.35777784205658e-07
-13.396875;1.92136789209984e-07;5.39684981216916e-07
-13.3875;1.80145776571935e-07;5.4453614129357e-07
-13.378125;1.70271818232131e-07;5.50320272561796e-07
-13.36875;1.6262930212073e-07;5.57018727849766e-07
-13.359375;1.57313874296808e-07;5.64605311729342e-07
-13.35;1.54401573947616e-07;5.73046448164148e-07
-13.340625;1.5394812577411e-07;5.82301403964057e-07
-13.33125;1.55988403687679e-07;5.9232257064552e-07
-13.321875;1.60536077756017e-07;6.03055811143927e-07
-13.3125;1.67583439368679e-07;6.14440860790061e-07
-13.303125;1.77101398438454e-07;6.26411769829067e-07
-13.29375;1.89039670636033e-07;6.38897404036417e-07
-13.284375;2.03327148755377e-07;6.51821992685399e-07
-13.275;2.19872438092427e-07;6.65105703347206e-07
-13.265625;2.38564579360434e-07;6.78665266909465e-07
-13.25625;2.59273930074482e-07;6.92414624162329e-07
-13.246875;2.81853216644348e-07;7.06265607531441e-07
-13.2375;3.06138722295425e-07;7.20128627996605e-07
-13.228125;3.31951634800616e-07;7.33913393360143e-07
-13.21875;3.5909951157805e-07;7.47529622507742e-07
-13.209375;3.87377878098844e-07;7.60887776719537e-07
-13.2;4.16571911973293e-07;7.73899768400354e-07
-13.190625;4.46458239570823e-07;7.86479682625239e-07
-13.18125;4.76806793127093e-07;7.98544466725513e-07
-13.171875;5.07382741709357e-07;8.10014614761439e-07
-13.1625;5.3794845280432e-07;8.20814810016749e-07
-13.153125;5.68265493442602e-07;8.30874549707408e-07
-13.14375;5.98096640424175e-07;8.40128727913264e-07
-13.134375;6.27207877227251e-07;8.48518173554531e-07
-13.125;6.55370374610416e-07;8.55990145766088e-07
-13.115625;6.82362434521275e-07;8.62498783562528e-07
-13.10625;7.07971369944833e-07;8.68005493124325e-07
-13.096875;7.31995313026139e-07;8.72479277043463e-07
-13.0875;7.5424494229454e-07;8.7589701179185e-07
-13.078125;7.74545103412414e-07;8.78243655845421e-07
-13.06875;7.92736308134729e-07;8.79512391526752e-07
-13.059375;8.08676110478561e-07;8.79704702019859e-07
-13.05;8.22240341596115e-07;8.78830385077117e-07
-13.040625;8.33324184951312e-07;8.769074890356e-07
-13.03125;8.41843096649618e-07;8.73962189668704e-07
-13.021875;8.4773355347532e-07;8.70028598758614e-07
-13.0125;8.50953626678742e-07;8.65148504502496e-07
-13.003125;8.51483366986906e-07;8.59371047827395e-07
-12.99375;8.49325012433911e-07;8.52752338801058e-07
-12.984375;8.44503003344505e-07;8.45355016084899e-07
-12.975;8.37063813660388e-07;8.37247749788434e-07
-12.965625;8.27075588074884e-07;8.28504689398262e-07
-12.95625;8.14627602789441e-07;8.19204872211539e-07
-12.946875;7.99829541442163e-07;8.09431581873089e-07
-12.9375;7.82810599292336e-07;7.99271678192586e-07
-12.928125;7.63718417222167e-07;7.88814884728605e-07
-12.91875;7.42717859839123e-07;7.78153060885326e-07
-12.909375;7.19989646691133e-07;7.67379446064376e-07
-12.9;6.9572884268679e-07;7.56587894299045e-07
-12.890625;6.701432270688e-07;7.4587209892942e-07
-12.88125;6.43451551567072e-07;7.35324818283546e-07
-12.871875;6.15881701522778e-07;7.25037104131358e-07
-12.8625;5.87668776142857e-07;7.15097541746272e-07
-12.853125;5.59053105734356e-07;7.05591509952205e-07
-12.84375;5.30278220364843e-07;6.96600462439673e-07
-12.834375;5.01588786566545e-07;6.88201243177128e-07
-12.825;4.73228534226444e-07;6.80465431407369e-07
-12.815625;4.45438184414171e-07;6.73458735974826e-07
-12.80625;4.18453403145874e-07;6.67240429409744e-07
-12.796875;3.92502789287852e-07;6.61862835666819e-07
-12.7875;3.67805926963215e-07;6.57370880585167e-07
-12.778125;3.44571503009274e-07;6.53801687828239e-07
-12.76875;3.22995522195668e-07;6.51184256890517e-07
-12.759375;3.03259619900422e-07;6.49539187540796e-07
-12.75;2.85529501779091e-07;6.48878495522824e-07
-12.740625;2.6995350905909e-07;6.4920547780866e-07
-12.73125;2.56661337659889e-07;6.50514667884516e-07
-12.721875;2.45762905121122e-07;6.52791852500869e-07
-12.7125;2.37347394521153e-07;6.56014168516946e-07
-12.703125;2.31482462911579e-07;6.60150270309266e-07
-12.69375;2.28213641721055e-07;6.65160567068173e-07
-12.684375;2.27563918188528e-07;6.70997536445465e-07
-12.675;2.29533513215263e-07;6.77606099213849e-07
-12.665625;2.34099850107858e-07;6.84924062987998e-07
-12.65625;2.41217722512719e-07;6.92882630626965e-07
-12.646875;2.50819649170468e-07;7.01406957521373e-07
-12.6375;2.62816426070545e-07;7.10416771188316e-07
-12.628125;2.77097866271235e-07;7.19827038503171e-07
-12.61875;2.93533713344628e-07;7.29548669360116e-07
-12.609375;3.11974735859854e-07;7.39489265705985e-07
-12.6;3.32253983213531e-07;7.4955390073801e-07
-12.590625;3.54188198208335e-07;7.59645918167936e-07
-12.58125;3.77579366303021e-07;7.69667758070933e-07
-12.571875;4.0221640597888e-07;7.7952179074086e-07
-12.5625;4.2787696063494e-07;7.8911115209816e-07
-12.553125;4.54329303907169e-07;7.98340587425917e-07
-12.54375;4.81334318614872e-07;8.0711727185364e-07
-12.534375;5.08647555726397e-07;8.15351634248545e-07
-12.525;5.3602133065822e-07;8.22958133622434e-07
-12.515625;5.63206865367102e-07;8.29856035664324e-07
-12.50625;5.89956431778465e-07;8.35970124903141e-07
-12.496875;6.16025506587689e-07;8.4123139658486e-07
-12.4875;6.41174888073732e-07;8.4557768830736e-07
-12.478125;6.65172789594761e-07;8.48954264657723e-07
-12.46875;6.87796855877704e-07;8.5131433751895e-07
-12.459375;7.0883612481239e-07;8.52619528085007e-07
-12.45;7.2809287921253e-07;8.52840260559066e-07
-12.440625;7.4538440144411e-07;8.51956083494039e-07
-12.43125;7.60544599052432e-07;8.49955916146256e-07
-12.421875;7.73425498592328e-07;8.46838225606243e-07
-12.4125;7.83898577825183e-07;8.42611111187645e-07
-12.403125;7.91855946182558e-07;8.37292322233602e-07
-12.39375;7.97211352007584e-07;8.30909196114678e-07
-12.384375;7.99900997925913e-07;8.2349850343186e-07
-12.375;7.99884176024938e-07;8.15106225955609e-07
-12.365625;7.97143705854007e-07;8.05787255499091e-07
-12.35625;7.91686173773278e-07;7.95605010627144e-07
-12.346875;7.83541961471424e-07;7.84630986659952e-07
-12.3375;7.72765090769045e-07;7.72944237637446e-07
-12.328125;7.59432843721296e-07;7.60630781978695e-07
-12.31875;7.43645202049529e-07;7.47782962104196e-07
-12.309375;7.2552407757188e-07;7.34498732838249e-07
-12.3;7.05212367092426e-07;7.20880914973017e-07
-12.290625;6.82872813231044e-07;7.07036388444392e-07
-12.28125;6.58686702941576e-07;6.93075261872462e-07
-12.271875;6.32852396208038e-07;6.79109999020534e-07
-12.2625;6.05583714149148e-07;6.65254529747889e-07
-12.253125;5.77108182584219e-07;6.51623338352896e-07
-12.24375;5.47665163157182e-07;6.38330547341064e-07
-12.234375;5.17503862048912e-07;6.25488987998888e-07
-12.225;4.8688127588391e-07;6.13209295484539e-07
-12.215625;4.56060037221567e-07;6.01598997496779e-07
-12.20625;4.25306225472453e-07;5.90761636118377e-07
-12.196875;3.94887135541646e-07;5.80795914916975e-07
-12.1875;3.65069031199208e-07;5.71794881021778e-07
-12.178125;3.36114896013911e-07;5.63845144497836e-07
-12.16875;3.08282212582257e-07;5.57026154497858e-07
-12.159375;2.81820782806685e-07;5.51409530678628e-07
-12.15;2.5697059978069e-07;5.47058447861316e-07
-12.140625;2.33959801204552e-07;5.44027090563439e-07
-12.13125;2.13002720494106e-07;5.4236018480671e-07
-12.121875;1.94298050110769e-07;5.42092599335776e-07
-12.1125;1.78027118866014e-07;5.43249021861096e-07
-12.103125;1.64352336702347e-07;5.45843732458156e-07
-12.09375;1.53415770045879e-07;5.49880443018989e-07
-12.084375;1.45337904840339e-07;5.55352238221181e-07
-12.075;1.40216574403698e-07;5.62241591034295e-07
-12.065625;1.38126092006443e-07;5.70520479015809e-07
-12.05625;1.39116563516999e-07;5.80150573459485e-07
-12.046875;1.43213420069868e-07;5.9108352745756e-07
-12.0375;1.50417141338818e-07;6.03261334069715e-07
-12.028125;1.60703207543147e-07;6.16616781028442e-07
-12.01875;1.74022245405484e-07;6.31073966920883e-07
-12.009375;1.90300401078107e-07;6.46548906665604e-07
-12;2.09439903057901e-07;6.62950189280205e-07
-11.990625;2.31319851050111e-07;6.80179718103167e-07
-11.98125;2.55797181218984e-07;6.98133493390699e-07
-11.971875;2.82707833550973e-07;7.16702453378057e-07
-11.9625;3.11868098078885e-07;7.35773362458136e-07
-11.953125;3.43076129688002e-07;7.55229735370757e-07
-11.94375;3.76113613695705e-07;7.74952783736501e-07
-11.934375;4.10747583135753e-07;7.94822396350892e-07
-11.925;4.46732364168141e-07;8.14718133442227e-07
-11.915625;4.83811624392013e-07;8.34520216637423e-07
-11.90625;5.21720520293443e-07;8.54110521768212e-07
-11.896875;5.60187925818756e-07;8.73373570008454e-07
-11.8875;5.98938713705391e-07;8.92197488032951e-07
-11.878125;6.37696070660687e-07;9.10474943340807e-07
-11.86875;6.76183843859949e-07;9.28104054267749e-07
-11.859375;7.14128871074524e-07;9.44989241997284e-07
-11.85;7.51263305379115e-07;9.61042049889235e-07
-11.840625;7.87326879430797e-07;9.76181884394562e-07
-11.83125;8.2206913417762e-07;9.90336718756253e-07
-11.821875;8.55251539186134e-07;1.00344369724289e-06
-11.8125;8.86649545629665e-07;1.0154496947169e-06
-11.803125;9.16054492786734e-07;1.02631176457219e-06
-11.79375;9.43275411862465e-07;1.03599753323602e-06
-11.784375;9.6814065624174e-07;1.04448547853409e-06
-11.775;9.90499388611162e-07;1.05176513825879e-06
-11.765625;1.01022288065093e-06;1.05783721061731e-06
-11.75625;1.02720563369075e-06;1.06271357168348e-06
-11.746875;1.04136629688754e-06;1.06641718816736e-06
-11.7375;1.05264838240551e-06;1.06898193990465e-06
-11.728125;1.06102077142308e-06;1.07045235084938e-06
-11.71875;1.06647800118068e-06;1.07088322555897e-06
-11.709375;1.06904032684556e-06;1.07033918806937e-06
-11.7;1.06875357122131e-06;1.06889414714366e-06
-11.690625;1.06568875443774e-06;1.06663067921715e-06
-11.68125;1.05994149779774e-06;1.06363932196328e-06
-11.671875;1.0516312182173e-06;1.06001780228328e-06
-11.6625;1.0409001226581e-06;1.05587020581545e-06
-11.653125;1.0279119944998e-06;1.05130607867384e-06
-11.64375;1.01285079758837e-06;1.04643947768303e-06
-11.634375;9.95919098425469e-07;1.04138798255887e-06
-11.625;9.77336325576496e-07;1.03627166316829e-06
-11.615625;9.57336886248855e-07;1.03121203434332e-06
-11.60625;9.36168130270083e-07;1.02633096724473e-06
-11.596875;9.14088223498934e-07;1.02174962409771e-06
-11.5875;8.91363891429738e-07;1.0175873545949e-06
-11.578125;8.68268114913977e-07;1.01396064008997e-06
-11.56875;8.45077733155941e-07;1.01098201675511e-06
-11.559375;8.2207103569066e-07;1.00875906118037e-06
-11.55;7.9952530977813e-07;1.00739338067228e-06
-11.540625;7.77714404478661e-07;1.00697966965634e-06
-11.53125;7.56906314145275e-07;1.00760480671401e-06
-11.521875;7.37360796735263e-07;1.00934701840538e-06
-11.5125;7.19327064921305e-07;1.01227510366585e-06
-11.503125;7.03041552793224e-07;1.01644773750702e-06
-11.49375;6.88725793666511e-07;1.02191286095006e-06
-11.484375;6.76584409985268e-07;1.02870714763776e-06
-11.475;6.66803244310815e-07;1.0368555627003e-06
-11.465625;6.59547648594596e-07;1.04637102507471e-06
-11.45625;6.54960942723143e-07;1.05725416822632e-06
-11.446875;6.53163055825478e-07;1.06949319732569e-06
-11.4375;6.54249358187161e-07;1.08306384799536e-06
-11.428125;6.58289713224144e-07;1.09792946174943e-06
-11.41875;6.65327730341409e-07;1.1140411581e-06
-11.409375;6.75380255634845e-07;1.13133811229912e-06
-11.4;6.8843707182434e-07;1.14974793189139e-06
