# omega;Arpes occ;Arpes tot
-15;7.11144369709004e-08;2.99358294735707e-07
-14.990625;6.88362214097531e-08;3.17845792235135e-07
-14.98125;6.85931382796284e-08;3.38288542291913e-07
-14.971875;7.03893661100105e-08;3.60514251923024e-07
-14.9625;7.42115669416443e-08;3.84335433965834e-07
-14.953125;8.00289822644394e-08;4.09550981264942e-07
-14.94375;8.7793675061098e-08;4.35947851334497e-07
-14.934375;9.74409143433652e-08;4.63302850194523e-07
-14.925;1.08889719584455e-07;4.91384518547197e-07
-14.915625;1.22043520497304e-07;5.19955062495713e-07
-14.90625;1.36790973333947e-07;5.48772365193911e-07
-14.896875;1.53006882694904e-07;5.77592011357287e-07
-14.8875;1.70553268090764e-07;6.06169357147064e-07
-14.878125;1.89280511416353e-07;6.34261580158006e-07
-14.86875;2.09028629228896e-07;6.61629726680412e-07
-14.859375;2.29628619758148e-07;6.8804072953661e-07
-14.85;2.5090390354344e-07;7.13269374441965e-07
-14.840625;2.72671806756407e-07;7.37100192703281e-07
-14.83125;2.94745127438563e-07;7.59329293009548e-07
-14.821875;3.1693371677057e-07;7.79766073125196e-07
-14.8125;3.39046109351687e-07;7.98234845815542e-07
-14.803125;3.60891143460913e-07;8.1457631467179e-07
-14.79375;3.82279604986903e-07;8.28648934852612e-07
-14.784375;4.03025841494332e-07;8.40330113726459e-07
-14.775;4.229493496404e-07;8.49517252009033e-07
-14.765625;4.41876327385778e-07;8.56128626041579e-07
-14.75625;4.59641167755781e-07;8.6010408874113e-07
-14.746875;4.76087883766424e-07;8.61405590507124e-07
-14.7375;4.91071453324356e-07;8.60017515197019e-07
-14.728125;5.04459073873971e-07;8.55946826338078e-07
-14.71875;5.16131318431074e-07;8.49223029906879e-07
-14.709375;5.25983173187641e-07;8.39897940288676e-07
-14.7;5.33924951917989e-07;8.28045259445612e-07
-14.690625;5.39883096695219e-07;8.13759980951656e-07
-14.68125;5.43800819584046e-07;7.9715759748521e-07
-14.671875;5.45638624229543e-07;7.78373156911433e-07
-14.6625;5.4537466201126e-07;7.57560134612401e-07
-14.653125;5.43004957950267e-07;7.34889162266426e-07
-14.64375;5.38543466695472e-07;7.10546609760965e-07
-14.634375;5.32021986851004e-07;6.84733023553209e-07
-14.625;5.23489920778825e-07;6.57661465663615e-07
-14.615625;5.1301388616621e-07;6.29555724789186e-07
-14.60625;5.00677171781228e-07;6.00648450273117e-07
-14.596875;4.86579065883716e-07;5.7117920683629e-07
-14.5875;4.70834031426338e-07;5.41392464096816e-07
-14.578125;4.53570765734815e-07;5.11535556683375e-07
-14.56875;4.3493112173167e-07;4.81856604901178e-07
-14.559375;4.15068932899495e-07;4.52602437208882e-07
-14.55;3.94148723125317e-07;4.2401651813855e-07
-14.540625;3.7234432365163e-07;3.96336901135378e-07
-14.53125;3.4983741677948e-07;3.69794234046082e-07
-14.521875;3.26816004371476e-07;3.44609815941446e-07
-14.5125;3.03472821754274e-07;3.20993736900677e-07
-14.503125;2.80003709862939e-07;2.99143108382985e-07
-14.49375;2.56605955700548e-07;2.79240401851705e-07
-14.484375;2.3347662542142e-07;2.61451912962955e-07
-14.475;2.10810889448157e-07;2.45926354316526e-07
-14.465625;1.88800360970006e-07;2.32793600988811e-07
-14.45625;1.67631471827775e-07;2.2216358866727e-07
-14.446875;1.47483877111632e-07;2.14125382762162e-07
-14.4375;1.28528927081011e-07;2.08746419524405e-07
-14.428125;1.10928198384423e-07;2.06071933183149e-07
-14.41875;9.48321102770235e-08;2.06124556297571e-07
-14.409375;8.0378638048166e-08;2.08904133163493e-07
-14.4;6.76921182219686e-08;2.14387696346481e-07
-14.390625;5.68821850220444e-08;2.2252966336971e-07
-14.38125;4.80428126281695e-08;2.33262193860304e-07
-14.371875;4.12515039796888e-08;2.46495766164405e-07
-14.3625;3.65686110660821e-08;2.62119908683538e-07
-14.353125;3.4036799760554e-08;2.8000412504912e-07
-14.34375;3.36806692116988e-08;2.99998979583337e-07
-14.334375;3.55065186817146e-08;3.21937350729053e-07
-14.325;3.95022760557509e-08;3.45635824578485e-07
-14.315625;4.56375770678159e-08;3.70896234397372e-07
-14.30625;5.38640016156157e-08;3.9750732025962e-07
-14.296875;6.41154685002561e-08;4.25246504158179e-07
-14.2875;7.63087745527147e-08;4.53881757678145e-07
-14.278125;9.03442843835767e-08;4.83173552878172e-07
-14.26875;1.06106761607676e-07;5.12876878795583e-07
-14.259375;1.2346632955669e-07;5.4274330162742e-07
-14.25;1.42279563586162e-07;5.72523059985947e-07
-14.240625;1.6239069772256e-07;6.01967168738011e-07
-14.23125;1.83632937279023e-07;6.30829524411851e-07
-14.221875;2.05829868277508e-07;6.58868975756691e-07
-14.2125;2.28796952286095e-07;6.85851371143017e-07
-14.203125;2.52343090595828e-07;7.11551532953614e-07
-14.19375;2.76272250179462e-07;7.35755174020341e-07
-14.184375;3.00385122473946e-07;7.58260698117419e-07
-14.175;3.24480836088767e-07;7.78880935983614e-07
-14.165625;3.48358655499788e-07;7.97444714423231e-07
-14.15625;3.71819710893531e-07;8.13798336588061e-07
-14.146875;3.94668684919478e-07;8.27806872091998e-07
-14.1375;4.16715502502234e-07;8.39355338036795e-07
-14.128125;4.37776953009121e-07;8.48349670745605e-07
-14.11875;4.57678271226072e-07;8.54717550732207e-07
-14.109375;4.76254640872611e-07;8.58409026741636e-07
-14.1;4.93352624069503e-07;8.59396971237238e-07
-14.090625;5.08831487369082e-07;8.57677324376024e-07
-14.08125;5.22564425008584e-07;8.53269157263297e-07
-14.071875;5.344396684959e-07;8.46214537828403e-07
-14.0625;5.44361465640328e-07;8.36578200770677e-07
-14.053125;5.52250924571444e-07;8.2444702632256e-07
-14.04375;5.58046717762989e-07;8.09929334717709e-07
-14.034375;5.61705637617677e-07;7.93153999882143e-07
-14.025;5.63202996673595e-07;7.74269386980752e-07
-14.015625;5.62532868426154e-07;7.53442123386745e-07
-14.00625;5.59708174497184e-07;7.30855718408705e-07
-13.996875;5.54760608821256e-07;7.06709042404612e-07
-13.9875;5.47740394693233e-07;6.81214660588535e-07
-13.978125;5.38715896754193e-07;6.54597071648266e-07
-13.96875;5.27773064704674e-07;6.27090823390467e-07
-13.959375;5.15014738086179e-07;5.98938560591454e-07
-13.95;5.00559786503014e-07;5.70388975348425e-07
-13.940625;4.84542141985893e-07;5.41694746174133e-07
-13.93125;4.67109666851822e-07;5.1311039283469e-07
-13.921875;4.48422932138087e-07;4.84890158907257e-07
-13.9125;4.28653853622213e-07;4.57285849117382e-07
-13.903125;4.07984263804429e-07;4.30544731798698e-07
-13.89375;3.86604364791791e-07;4.0490743585993e-07
-13.884375;3.64711128133847e-07;3.80605929006603e-07
-13.875;3.42506620039472e-07;3.57861547453856e-07
-13.865625;3.20196294191662e-07;3.36883130414561e-07
-13.85625;2.97987237367321e-07;3.17865239783554e-07
-13.846875;2.76086406509761e-07;3.00986509747004e-07
-13.8375;2.54698865388833e-07;2.86408125643567e-07
-13.828125;2.34026026519845e-07;2.74272443887065e-07
-13.81875;2.14263924364622e-07;2.64701770373379e-07
-13.809375;1.95601532318017e-07;2.57797306753366e-07
-13.8;1.7821913570057e-07;2.53638273723939e-07
-13.790625;1.62286774976777e-07;2.52281214750353e-07
-13.78125;1.47962769739597e-07;2.53759489014501e-07
-13.771875;1.35392345708679e-07;2.58082960446431e-07
-13.7625;1.24706369235947e-07;2.65237886421579e-07
-13.753125;1.16020192941968e-07;2.75186994245227e-07
-13.74375;1.09432645131782e-07;2.87869768652834e-07
-13.734375;1.0502514342676e-07;3.03202920667388e-07
-13.725;1.02860970140347e-07;3.21081064855415e-07
-13.715625;1.02984677166619e-07;3.41377556837936e-07
-13.70625;1.05421681127034e-07;3.63945545785393e-07
-13.696875;1.10177986203413e-07;3.88619159089679e-07
-13.6875;1.17240101433774e-07;4.15214882701937e-07
-13.678125;1.26575094405782e-07;4.43533057546923e-07
-13.66875;1.38130840603319e-07;4.73359546239589e-07
-13.659375;1.51836410219317e-07;5.04467496026705e-07
-13.65;1.67602631358089e-07;5.36619225609836e-07
-13.640625;1.8532279926638e-07;5.69568196417216e-07
-13.63125;2.04873546465344e-07;6.03061068084895e-07
-13.621875;2.26115844003304e-07;6.36839804843599e-07
-13.6125;2.48896145283454e-07;6.70643828214002e-07
-13.603125;2.73047654845235e-07;7.04212193637638e-07
-13.59375;2.9839170772541e-07;7.37285768776869e-07
-13.584375;3.24739254987799e-07;7.6960940109447e-07
-13.575;3.51892439805779e-07;8.00934053936688e-07
-13.565625;3.79646251172371e-07;8.31018893296067e-07
-13.55625;4.07790240765022e-07;8.59633307406349e-07
-13.546875;4.3611028770942e-07;8.86558841222439e-07
-13.5375;4.64390399774222e-07;9.11591033810392e-07
-13.528125;4.92414533485799e-07;9.34541136150241e-07
-13.51875;5.19968413982925e-07;9.55237701093945e-07
-13.509375;5.46841348930281e-07;9.73528028666219e-07
-13.5;5.72828008138032e-07;9.89279453951956e-07
-13.490625;5.9773017049795e-07;1.00238047300092e-06
-13.48125;6.21358396707949e-07;1.01274168053739e-06
-13.471875;6.4353365344642e-07;1.02029653914413e-06
-13.4625;6.64088826141761e-07;1.02500193899579e-06
-13.453125;6.82870157298533e-07;1.0268385778494e-06
-13.44375;6.99738550455359e-07;1.02581112598154e-06
-13.434375;7.14570772588794e-07;1.0219482014849e-06
-13.425;7.27260509062248e-07;1.01530213895338e-06
-13.415625;7.37719281908151e-07;1.005948555067e-06
-13.40625;7.4587721841492e-07;9.93985726470791e-07
-13.396875;7.51683660633106e-07;9.7953376599475e-07
-13.3875;7.55107613374878e-07;9.62733623767257e-07
-13.378125;7.56138026647525e-07;9.43745904492006e-07
-13.36875;7.54783905978634e-07;9.22749521482333e-07
-13.359375;7.51074254279308e-07;8.99940193902452e-07
-13.35;7.45057844135831e-07;8.75528803074333e-07
-13.340625;7.36802819603083e-07;8.49739616434243e-07
-13.33125;7.26396132082027e-07;8.22808396576205e-07
-13.321875;7.13942816993414e-07;7.94980414037474e-07
-13.3125;6.99565115653638e-07;7.66508376728999e-07
-13.303125;6.83401445440093e-07;7.37650294304889e-07
-13.29375;6.65605233191326e-07;7.08667291126707e-07
-13.284375;6.46343621331833e-07;6.79821401812818e-07
-13.275;6.25796047795467e-07;6.51373340799053e-07
-13.265625;6.04152726675838e-07;6.23580294787134e-07
-13.25625;5.81613029102644e-07;5.96693734975591e-07
-13.246875;5.58383787995351e-07;5.70957276317762e-07
-13.2375;5.34677530190436e-07;5.46604600133617e-07
-13.228125;5.10710663926227e-07;5.23857457928683e-07
-13.21875;4.86701624401957e-07;5.02923775190123e-07
-13.209375;4.62869006205813e-07;4.83995870026054e-07
-13.2;4.39429680355966e-07;4.67248793662356e-07
-13.190625;4.16596936252665e-07;4.52838828989138e-07
-13.18125;3.94578638187941e-07;4.40902127476624e-07
-13.171875;3.73575438415452e-07;4.31553535724376e-07
-13.1625;3.5377903444051e-07;4.24885576071231e-07
-13.153125;3.3537051211182e-07;4.20967637447745e-07
-13.14375;3.18518772288099e-07;4.19845345684843e-07
-13.134375;3.0337905510307e-07;4.21540137240895e-07
-13.125;2.9009158288389e-07;4.26049038137028e-07
-13.115625;2.78780331767472e-07;4.33344652058816e-07
-13.10625;2.69551934695686e-07;4.4337534853074e-07
-13.096875;2.62494730108624e-07;4.56065656213008e-07
-13.0875;2.57677972568068e-07;4.71316864687483e-07
-13.078125;2.55151201777724e-07;4.89007820609931e-07
-13.06875;2.54943775432073e-07;5.08995912617006e-07
-13.059375;2.57064577769727e-07;5.31118236541731e-07
-13.05;2.61501908466567e-07;5.55192949642288e-07
-13.040625;2.68223533787367e-07;5.81020762451775e-07
-13.03125;2.77176928440782e-07;6.08386603056572e-07
-13.021875;2.88289681918497e-07;6.37061405973775e-07
-13.0125;3.01470085355634e-07;6.66804027172303e-07
-13.003125;3.16607872046267e-07;6.97363259586864e-07
-12.99375;3.33575132802683e-07;7.28479940350603e-07
-12.984375;3.52227373604126e-07;7.59889132589777e-07
-12.975;3.72404729129638e-07;7.91322357245384e-07
-12.965625;3.93933295113835e-07;8.22509851718428e-07
-12.95625;4.16626601519304e-07;8.53182860517713e-07
-12.946875;4.40287182384087e-07;8.83075901713201e-07
-12.9375;4.64708257479414e-07;9.1192903377932e-07
-12.928125;4.89675482269933e-07;9.3949005228318e-07
-12.91875;5.14968780319913e-07;9.65516652128916e-07
-12.909375;5.40364224981594e-07;9.89778496167659e-07
-12.9;5.65635955218108e-07;1.0120591880017e-06
-12.890625;5.90558115671361e-07;1.03215813517724e-06
-12.88125;6.14906806612376e-07;1.04989228496062e-06
-12.871875;6.38462014870735e-07;1.06509771100935e-06
-12.8625;6.61009516792312e-07;1.077631041908e-06
-12.853125;6.82342744428876e-07;1.08737072615694e-06
-12.84375;7.02264585455183e-07;1.09421811331869e-06
-12.834375;7.20589105710284e-07;1.09809834187423e-06
-12.825;7.37143184402164e-07;1.09896102895208e-06
-12.815625;7.51768047336608e-07;1.0967807687928e-06
-12.80625;7.64320672154347e-07;1.09155739976006e-06
-12.796875;7.74675073333014e-07;1.08331608052116e-06
-12.7875;7.82723439130479e-07;1.07210714374983e-06
-12.778125;7.88377123118233e-07;1.0580057430835e-06
-12.76875;7.91567465055218e-07;1.04111128602631e-06
-12.759375;7.92246455098297e-07;1.02154666524706e-06
-12.75;7.90387215604733e-07;9.99457295601452e-07
-12.740625;7.85984313070227e-07;9.75009956805983e-07
-12.73125;7.79053877435946e-07;9.48391450164284e-07
-12.721875;7.69633549693424e-07;9.19807098205064e-07
-12.7125;7.57782239400487e-07;8.89479072086039e-07
-12.703125;7.43579706810165e-07;8.57644590920059e-07
-12.69375;7.27125959936459e-07;8.24553972480008e-07
-12.684375;7.08540485082947e-07;7.90468591783353e-07
-12.675;6.87961308712715e-07;7.55658730932756e-07
-12.665625;6.65543897544675e-07;7.20401354396021e-07
-12.65625;6.41459910004908e-07;6.84977826457218e-07
-12.646875;6.15895810702998e-07;6.49671589083628e-07
-12.6375;5.89051352372532e-07;6.1476581775101e-07
-12.628125;5.61137942881597e-07;5.80541076590791e-07
-12.61875;5.32376913512466e-07;5.47272994751001e-07
-12.609375;5.02997697950634e-07;5.15229980675646e-07
-12.6;4.73235937551399e-07;4.84670994123239e-07
-12.590625;4.43331534552104e-07;4.55843392722438e-07
-12.58125;4.13526664745723e-07;4.2898088392234e-07
-12.571875;3.84063766758035e-07;4.04301576712149e-07
-12.5625;3.55183527521763e-07;3.82006172370994e-07
-12.553125;3.27122880322711e-07;3.62276297772011e-07
-12.54375;3.00113032582076e-07;3.45272999089769e-07
-12.534375;2.74377538887488e-07;3.31135407773612e-07
-12.525;2.501304389139e-07;3.19979590164605e-07
-12.515625;2.27574474344904e-07;3.11897595995632e-07
-12.50625;2.0689940094887e-07;3.0695670618109e-07
-12.496875;1.88280410969795e-07;3.05198892261781e-07
-12.4875;1.71876678097659e-07;3.066404923492e-07
-12.478125;1.57830042880838e-07;3.11272105487684e-07
-12.46875;1.46263841386082e-07;3.19058706035236e-07
-12.459375;1.37281898384962e-07;3.29939976679545e-07
-12.45;1.30967685517455e-07;3.43830863819563e-07
-12.440625;1.2738365810193e-07;3.606223430962e-07
-12.43125;1.26570772513615e-07;3.80182393699109e-07
-12.421875;1.28548194658225e-07;4.02357176991403e-07
-12.4125;1.33313195114761e-07;4.26972401091928e-07
-12.403125;1.40841240121302e-07;4.53834870794245e-07
-12.39375;1.51086275706729e-07;4.82734206631149e-07
-12.384375;1.63981198902409e-07;5.13444713311222e-07
-12.375;1.79438523023739e-07;5.4572739445087e-07
-12.365625;1.97351220747596e-07;5.79332087143408e-07
-12.35625;2.17593749123113e-07;6.13999704117889e-07
-12.346875;2.40023237804902e-07;6.49464562132434e-07
-12.3375;2.64480846255346e-07;6.85456785496459e-07
-12.328125;2.90793259625284e-07;7.21704750374296e-07
-12.31875;3.18774331050142e-07;7.57937565793925e-07
-12.309375;3.48226841846079e-07;7.93887560596565e-07
-12.3;3.78944378007643e-07;8.29292761471465e-07
-12.290625;4.10713297036925e-07;8.63899340352785e-07
-12.28125;4.43314775448748e-07;8.97464005756289e-07
-12.271875;4.76526919398792e-07;9.29756329509642e-07
-12.2625;5.10126920754524e-07;9.60560979922612e-07
-12.253125;5.43893241078809e-07;9.89679848403454e-07
-12.24375;5.77607806560385e-07;1.01693405174524e-06
-12.234375;6.11058186780979e-07;1.04216578326426e-06
-12.225;6.44039765295093e-07;1.0652400243118e-06
-12.215625;6.76357845215788e-07;1.08604606586204e-06
-12.20625;7.0782971089341e-07;1.10449886014115e-06
-12.196875;7.38286601482947e-07;1.12054017031954e-06
-12.1875;7.67575595841762e-07;1.1341395215543e-06
-12.178125;7.95561382964289e-07;1.14529493421684e-06
-12.16875;8.22127911633195e-07;1.15403344498945e-06
-12.159375;8.47179902714926e-07;1.16041140835096e-06
-12.15;8.70644206331054e-07;1.16451456665548e-06
-12.140625;8.92471002800988e-07;1.16645790363235e-06
-12.13125;9.12634827993262e-07;1.16638527324316e-06
-12.121875;9.31135426709301e-07;1.16446881375985e-06
-12.1125;9.47998403314248e-07;1.16090813513987e-06
-12.103125;9.63275703330917e-07;1.15592932329769e-06
-12.09375;9.77045879073629e-07;1.14978372390064e-06
-12.084375;9.89414168200169e-07;1.14274655297991e-06
-12.075;1.00051237106621e-06;1.13511532770031e-06
-12.065625;1.01049853375456e-06;1.12720813874423e-06
-12.05625;1.0195564357524e-06;1.11936177597017e-06
-12.046875;1.02789488725393e-06;1.11192972101688e-06
-12.0375;1.03574684463019e-06;1.10528002973016e-06
-12.028125;1.04336835281029e-06;1.09979312240058e-06
-12.01875;1.05103731802803e-06;1.09585949298033e-06
-12.009375;1.05905213018964e-06;1.09387737132392e-06
-12;1.0677301296089e-06;1.09425033182427e-06
-11.990625;1.07740596480641e-06;1.09738491604671e-06
-11.98125;1.08842981051947e-06;1.10368822955502e-06
-11.971875;1.10116550254228e-06;1.11356558670104e-06
-11.9625;1.11598857748509e-06;1.127418191006e-06
-11.953125;1.13328425158682e-06;1.14564088844495e-06
-11.94375;1.15344534054071e-06;1.16861999573745e-06
-11.934375;1.17687015293419e-06;1.19673124196204e-06
-11.925;1.20396036840872e-06;1.23033783239403e-06
-11.915625;1.23511891236385e-06;1.2697886404852e-06
-11.90625;1.27074785804092e-06;1.31541656110654e-06
-11.896875;1.31124636449862e-06;1.36753703010513e-06
-11.8875;1.35700867458347e-06;1.42644672781113e-06
-11.878125;1.4084221733371e-06;1.49242245555861e-06
-11.86875;1.46586555636747e-06;1.56572024230908e-06
-11.859375;1.52970708204008e-06;1.64657462943033e-06
-11.85;1.60030295595705e-06;1.73519818846577e-06
-11.840625;1.67799583942237e-06;1.83178124335145e-06
-11.83125;1.76311351051283e-06;1.93649182421342e-06
-11.821875;1.85596767128804e-06;2.04947582564377e-06
-11.8125;1.95685292758206e-06;2.17085739587815e-06
-11.803125;2.0660459327451e-06;2.30073952397197e-06
-11.79375;2.18380471932477e-06;2.43920484860757e-06
-11.784375;2.31036820517814e-06;2.58631665189942e-06
-11.775;2.44595589399876e-06;2.74212005608414e-06
-11.765625;2.59076775128693e-06;2.906643376609e-06
-11.75625;2.74498428445019e-06;3.07989967133125e-06
-11.746875;2.90876679008608e-06;3.26188840593862e-06
-11.7375;3.08225779343111e-06;3.45259727560193e-06
-11.728125;3.26558165787455e-06;3.65200413553428e-06
-11.71875;3.45884536603748e-06;3.86007903139658e-06
-11.709375;3.66213945204714e-06;4.07678629976767e-06
-11.7;3.87553908965877e-06;4.30208673632817e-06
-11.690625;4.09910531704575e-06;4.53593980156346e-06
-11.68125;4.33288637714871e-06;4.77830583012301e-06
-11.671875;4.57691917348524e-06;5.02914824207575e-06
-11.6625;4.83123081865291e-06;5.28843572383779e-06
-11.653125;5.09584025894175e-06;5.55614436407405e-06
-11.64375;5.3707599535727e-06;5.83225969687549e-06
-11.634375;5.65599760597179e-06;6.11677868140895e-06
-11.625;5.95155790589584e-06;6.40971153850015e-06
-11.615625;6.257444286189e-06;6.71108347407688e-06
-11.60625;6.57366065268436e-06;7.02093623132113e-06
-11.596875;6.90021309522992e-06;7.33932949275637e-06
-11.5875;7.23711152677165e-06;7.6663420707797e-06
-11.578125;7.58437127014366e-06;8.00207292090219e-06
-11.56875;7.94201453481943e-06;8.34664191431297e-06
-11.559375;8.31007180471977e-06;8.70019040656216e-06
-11.55;8.68858308532104e-06;9.06288154834435e-06
-11.540625;9.07759902212362e-06;9.43490036854032e-06
-11.53125;9.47718185542679e-06;9.81645358696433e-06
-11.521875;9.88740621397215e-06;1.02077691959071e-05
-11.5125;1.03083597214841e-05;1.06090957596252e-05
-11.503125;1.07401434144158e-05;1.10207014732649e-05
-11.49375;1.11828719619925e-05;1.14428729661491e-05
-11.484375;1.16366736755993e-05;1.18759138513469e-05
-11.475;1.21016903017045e-05;1.23201430297255e-05
-11.465625;1.25780766040866e-05;1.277589276785e-05
-11.45625;1.30659997266347e-05;1.32435065536342e-05
-11.446875;1.35656383324386e-05;1.37233367333109e-05
-11.4375;1.40771815270664e-05;1.42157419569798e-05
-11.428125;1.46008275753364e-05;1.47210844496569e-05
-11.41875;1.51367824032276e-05;1.52397271203363e-05
-11.409375;1.56852579062363e-05;1.57720305232069e-05
-11.4;1.62464700619777e-05;1.63183497077835e-05
