# omega;Arpes occ;Arpes tot
-15;3.44482330344185e-08;2.70396491883133e-07
-14.990625;3.15286243288528e-08;2.88172713004097e-07
-14.98125;3.06555262967262e-08;3.07830925007375e-07
-14.971875;3.18412453950181e-08;3.29208193809681e-07
-14.9625;3.50805916637982e-08;3.52127095282254e-07
-14.953125;4.03509052690591e-08;3.76397204639773e-07
-14.94375;4.76122295156332e-08;4.01816690179843e-07
-14.934375;5.68076271172116e-08;4.28174002139044e-07
-14.925;6.78636575400782e-08;4.55249659482239e-07
-14.915625;8.06909718730687e-08;4.82818078254068e-07
-14.90625;9.51850668672038e-08;5.10649479536145e-07
-14.896875;1.11227147002429e-07;5.38511807874053e-07
-14.8875;1.28685135487799e-07;5.66172695285376e-07
-14.878125;1.474147696852e-07;5.93401406466017e-07
-14.86875;1.67260826329794e-07;6.19970781393664e-07
-14.859375;1.88058425807808e-07;6.4565915220415e-07
-14.85;2.09634435930085e-07;6.70252211134827e-07
-14.840625;2.3180892334352e-07;6.93544809121487e-07
-14.83125;2.54396694429257e-07;7.1534269795035e-07
-14.821875;2.77208856523094e-07;7.354641586866e-07
-14.8125;3.0005443511198e-07;7.53741549991526e-07
-14.803125;3.22741987070235e-07;7.70022713935874e-07
-14.79375;3.45081243919657e-07;7.84172273718457e-07
-14.784375;3.66884731997707e-07;7.96072780319065e-07
-14.775;3.87969372153435e-07;8.0562570745736e-07
-14.765625;4.08158050694995e-07;8.12752297349859e-07
-14.75625;4.27281137962387e-07;8.17394233991636e-07
-14.746875;4.45177944203099e-07;8.19514146533854e-07
-14.7375;4.61698101006557e-07;8.19095936842888e-07
-14.728125;4.76702857892975e-07;8.16144927830873e-07
-14.71875;4.9006628552116e-07;8.1068783756679e-07
-14.709375;5.01676364861927e-07;8.02772566561606e-07
-14.7;5.11435957795364e-07;7.9246780783877e-07
-14.690625;5.19263667351063e-07;7.79862491112649e-07
-14.68125;5.2509454257847e-07;7.65065038946857e-07
-14.671875;5.28880665783375e-07;7.48202480893438e-07
-14.6625;5.30591576498594e-07;7.2941939098201e-07
-14.653125;5.30214567239212e-07;7.08876689913799e-07
-14.64375;5.27754809566834e-07;6.86750306330663e-07
-14.634375;5.23235339557219e-07;6.63229701769181e-07
-14.625;5.16696888390386e-07;6.38516300670028e-07
-14.615625;5.08197563604182e-07;6.12821797860523e-07
-14.60625;4.97812373624226e-07;5.86366392025921e-07
-14.596875;4.85632622376226e-07;5.59376943903064e-07
-14.5875;4.71765148786099e-07;5.32085069941934e-07
-14.578125;4.56331447031977e-07;5.04725209272629e-07
-14.56875;4.39466645120897e-07;4.7753265007377e-07
-14.559375;4.21318382799665e-07;4.50741558038495e-07
-14.55;4.02045569968835e-07;4.24583008342438e-07
-14.540625;3.81817047091553e-07;3.99283040233368e-07
-14.53125;3.60810166798762e-07;3.75060760413648e-07
-14.521875;3.39209294888889e-07;3.52126494661308e-07
-14.5125;3.17204250486616e-07;3.30680016086419e-07
-14.503125;2.94988698135071e-07;3.10908859223267e-07
-14.49375;2.72758501927128e-07;2.92986735218027e-07
-14.484375;2.50710065594468e-07;2.770720661329e-07
-14.475;2.29038658047115e-07;2.63306639149143e-07
-14.465625;2.07936745508567e-07;2.51814405990146e-07
-14.45625;1.87592354654314e-07;2.42700426058727e-07
-14.446875;1.68187457653141e-07;2.36049970858597e-07
-14.4375;1.49896418412927e-07;2.3192779165096e-07
-14.428125;1.32884491676538e-07;2.3037756324702e-07
-14.41875;1.17306401705557e-07;2.31421490626314e-07
-14.409375;1.03305011953869e-07;2.35060119276315e-07
-14.4;9.10100818522993e-08;2.41272298799345e-07
-14.390625;8.05371495145358e-08;2.50015356409835e-07
-14.38125;7.19865165558462e-08;2.61225421735147e-07
-14.371875;6.54423745760114e-08;2.74817961269299e-07
-14.3625;6.09720608985266e-08;2.90688459342033e-07
-14.353125;5.86254550716002e-08;3.08713283585977e-07
-14.34375;5.84345282350138e-08;3.28750703037039e-07
-14.334375;6.04130380250279e-08;3.50642066865938e-07
-14.325;6.45563844089083e-08;3.74213115990943e-07
-14.315625;7.08416154578208e-08;3.99275435028355e-07
-14.30625;7.92275906214695e-08;4.25628018671269e-07
-14.296875;8.96553032652676e-08;4.53058948936727e-07
-14.2875;1.02048349086749e-07;4.81347161544876e-07
-14.278125;1.16313547241273e-07;5.10264292728968e-07
-14.26875;1.32341705271877e-07;5.39576588684675e-07
-14.259375;1.50008517417352e-07;5.69046859577057e-07
-14.25;1.69175597861852e-07;5.98436466454292e-07
-14.240625;1.89691632605034e-07;6.27507319209386e-07
-14.23125;2.1139364233605e-07;6.56023876618451e-07
-14.221875;2.34108347365137e-07;6.83755115445225e-07
-14.2125;2.57653623302046e-07;7.10476478571823e-07
-14.203125;2.81840032448944e-07;7.3597175573619e-07
-14.19375;3.06472422992559e-07;7.60034911013208e-07
-14.184375;3.31351567923845e-07;7.82471800167346e-07
-14.175;3.56275864044306e-07;8.03101830734456e-07
-14.165625;3.81043024662101e-07;8.2175946247949e-07
-14.15625;4.0545180969759e-07;8.3829562705649e-07
-14.146875;4.2930372018722e-07;8.52578966051073e-07
-14.1375;4.52404702438951e-07;8.64496968886057e-07
-14.128125;4.74566791950235e-07;8.73956911371626e-07
-14.11875;4.9560972222721e-07;8.80886656665472e-07
-14.109375;5.15362463297266e-07;8.85235265751816e-07
-14.1;5.33664691919312e-07;8.86973449261758e-07
-14.090625;5.50368164717074e-07;8.86093818230847e-07
-14.08125;5.65337993922047e-07;8.82610964063247e-07
-14.071875;5.78453814607229e-07;8.7656135163386e-07
-14.0625;5.89610826259237e-07;8.6800302579482e-07
-14.053125;5.98720703241321e-07;8.5701513659791e-07
-14.04375;6.05712369451154e-07;8.4369728988675e-07
-14.034375;6.1053262711733e-07;8.2816872472254e-07
-14.025;6.13146633080219e-07;8.10567324511159e-07
-14.015625;6.13538217555679e-07;7.91048467798486e-07
-14.00625;6.11710050458783e-07;7.69783735929655e-07
-13.996875;6.07683645389034e-07;7.4695948567837e-07
-13.9875;6.0149919649494e-07;7.22775282760704e-07
-13.978125;5.93215269584745e-07;6.97442244023251e-07
-13.96875;5.82908323656555e-07;6.71181261661064e-07
-13.959375;5.70672091625012e-07;6.44221161545411e-07
-13.95;5.56616793562298e-07;6.16796766781012e-07
-13.940625;5.40868239489818e-07;5.89146950719567e-07
-13.93125;5.2356676329332e-07;5.615126061586e-07
-13.921875;5.04866063333932e-07;5.34134641343346e-07
-13.9125;4.84931895557448e-07;5.07251929053343e-07
-13.903125;4.63940697576654e-07;4.81099317728576e-07
-13.89375;4.42078087516011e-07;4.55905634505898e-07
-13.884375;4.19537304060727e-07;4.3189176372018e-07
-13.875;3.96517565297706e-07;4.09268772590153e-07
-13.865625;3.73222388435318e-07;3.88236135268732e-07
-13.85625;3.49857855420948e-07;3.68980034680985e-07
-13.846875;3.26630863034272e-07;3.51671787894385e-07
-13.8375;3.03747364897063e-07;3.36466390952696e-07
-13.828125;2.81410612213676e-07;3.23501197651899e-07
-13.81875;2.59819417899847e-07;3.12894745725521e-07
-13.809375;2.39166457639654e-07;3.04745743483377e-07
-13.8;2.19636619797955e-07;2.99132220791092e-07
-13.790625;2.01405418907721e-07;2.96110852743127e-07
-13.78125;1.84637483086253e-07;2.95716460285575e-07
-13.771875;1.69485138217645e-07;2.97961697455191e-07
-13.7625;1.56087093905275e-07;3.02836927221415e-07
-13.753125;1.44567234784828e-07;3.10310275279943e-07
-13.74375;1.35033550745989e-07;3.20327884167321e-07
-13.734375;1.27577186526804e-07;3.32814338984715e-07
-13.725;1.22271649309154e-07;3.47673292210265e-07
-13.715625;1.19172142157544e-07;3.64788239186233e-07
-13.70625;1.1831508489904e-07;3.84023500128244e-07
-13.696875;1.19717760258462e-07;4.0522532671877e-07
-13.6875;1.233781532229e-07;4.28223196473035e-07
-13.678125;1.29274925242542e-07;4.52831216474107e-07
-13.66875;1.37367584422411e-07;4.78849692189116e-07
-13.659375;1.47596792917762e-07;5.06066786729466e-07
-13.65;1.59884852094345e-07;5.34260300229478e-07
-13.640625;1.7413633528473e-07;5.63199530179997e-07
-13.63125;1.90238883632823e-07;5.92647213801654e-07
-13.621875;2.08064136002732e-07;6.22361519642498e-07
-13.6125;2.27468805057179e-07;6.52098085273728e-07
-13.603125;2.48295882097714e-07;6.81612079188459e-07
-13.59375;2.70375957220239e-07;7.10660265996459e-07
-13.584375;2.93528650654982e-07;7.3900306318708e-07
-13.575;3.175641401176e-07;7.66406569674307e-07
-13.565625;3.4228477162118e-07;7.92644549479347e-07
-13.55625;3.67486739893816e-07;8.17500352961608e-07
-13.546875;3.92961822710285e-07;8.40768758819827e-07
-13.5375;4.18499158933085e-07;8.62257725860348e-07
-13.528125;4.43887052143453e-07;8.81790032527307e-07
-13.51875;4.68914780919442e-07;8.99204796074408e-07
-13.509375;4.93374410437575e-07;9.14358856398988e-07
-13.5;5.17062576798635e-07;9.27128010490761e-07
-13.490625;5.39782245606772e-07;9.3740809532528e-07
-13.48125;5.61344403264487e-07;9.45115891664599e-07
-13.471875;5.81569706215901e-07;9.50189869587689e-07
-13.4625;6.00290025577305e-07;9.52590734951971e-07
-13.453125;6.17349923049087e-07;9.5230180594903e-07
-13.44375;6.326079984856e-07;9.49329185365801e-07
-13.434375;6.45938140933103e-07;9.43701752936496e-07
-13.425;6.57230637629963e-07;9.35470961066756e-07
-13.415625;6.66393150233143e-07;9.24710437923258e-07
-13.40625;6.73351545363591e-07;9.11515410636529e-07
-13.396875;6.78050569519131e-07;8.96001937385889e-07
-13.3875;6.80454364942678e-07;8.78305971668826e-07
-13.378125;6.80546822036689e-07;8.58582250834688e-07
-13.36875;6.78331761165771e-07;8.37003028589526e-07
-13.359375;6.73832946579885e-07;8.1375665696039e-07
-13.35;6.67093931143382e-07;7.89046033348355e-07
-13.340625;6.58177729557927e-07;7.6308691944602e-07
-13.33125;6.47166324786435e-07;7.36106149519431e-07
-13.321875;6.34160013358774e-07;7.08339745704426e-07
-13.3125;6.1927659294361e-07;6.80030951634879e-07
-13.303125;6.02650395688371e-07;6.51428202682687e-07
-13.29375;5.84431180472574e-07;6.22783044349738e-07
-13.284375;5.64782893827656e-07;5.94348033125585e-07
-13.275;5.43882300099932e-07;5.66374609820612e-07
-13.265625;5.2191750641535e-07;5.39110992166674e-07
-13.25625;4.99086382660317e-07;5.12800084956358e-07
-13.246875;4.75594899044234e-07;4.87677432047344e-07
-13.2375;4.51655384569668e-07;4.63969226353546e-07
-13.228125;4.27484734018899e-07;4.41890395698388e-07
-13.21875;4.03302566314461e-07;4.21642781340749e-07
-13.209375;3.79329362374742e-07;4.03413423816393e-07
-13.2;3.55784580542851e-07;3.87372962859389e-07
-13.190625;3.32884789576818e-07;3.73674186633776e-07
-13.18125;3.10841809206779e-07;3.62450710178426e-07
-13.171875;2.89860899675973e-07;3.53815833557479e-07
-13.1625;2.70138989204473e-07;3.47861545468069e-07
-13.153125;2.51862979874729e-07;3.4465772539346e-07
-13.14375;2.35208131040078e-07;3.44251516569007e-07
-13.134375;2.20336534069013e-07;3.46666890890897e-07
-13.125;2.07395700088764e-07;3.51904409858812e-07
-13.115625;1.96517270989658e-07;3.59941183663567e-07
-13.10625;1.87815857216369e-07;3.70731021715707e-07
-13.096875;1.81388016959815e-07;3.84204777453685e-07
-13.0875;1.77311393356712e-07;4.0027089343739e-07
-13.078125;1.75644007569505e-07;4.18816131806691e-07
-13.06875;1.76423712712559e-07;4.3970648556275e-07
-13.059375;1.79667822061468e-07;4.62788262467007e-07
-13.05;1.85372916384939e-07;4.87889351223561e-07
-13.040625;1.93514813520576e-07;5.14820619639774e-07
-13.03125;2.04048728306562e-07;5.43377479220647e-07
-13.021875;2.16909598929578e-07;5.73341570839749e-07
-13.0125;2.32012594783046e-07;6.04482572549401e-07
-13.003125;2.49253780914605e-07;6.36560105466404e-07
-12.99375;2.68510960271731e-07;6.69325730245292e-07
-12.984375;2.89644661960264e-07;7.02525016611908e-07
-12.975;3.12499289927662e-07;7.35899664140284e-07
-12.965625;3.36904395422606e-07;7.69189651103055e-07
-12.95625;3.62676095618411e-07;8.02135416967489e-07
-12.946875;3.89618595285262e-07;8.34480025223644e-07
-12.9375;4.17525826567043e-07;8.6597132945642e-07
-12.928125;4.46183163882352e-07;8.96364075546226e-07
-12.91875;4.75369228853929e-07;9.25421974802437e-07
-12.909375;5.04857751758331e-07;9.5291969023589e-07
-12.9;5.3441947492622e-07;9.78644735133051e-07
-12.890625;5.63824088488472e-07;1.00239926947987e-06
-12.88125;5.92842183739264e-07;1.0240017782016e-06
-12.871875;6.21247196007067e-07;1.04328861008743e-06
-12.8625;6.48817326783026e-07;1.06011536761073e-06
-12.853125;6.75337437844022e-07;1.07435814418183e-06
-12.84375;7.00600886193267e-07;1.08591458755187e-06
-12.834375;7.24411289367279e-07;1.09470478111553e-06
-12.825;7.46584210519494e-07;1.10067193774237e-06
-12.815625;7.66948748293115e-07;1.10378291288302e-06
-12.80625;7.85349005091086e-07;1.10402849782142e-06
-12.796875;8.01645440939869e-07;1.10142353187633e-06
-12.7875;8.15716084623867e-07;1.09600680273895e-06
-12.778125;8.2745760419874e-07;1.08784075040785e-06
-12.76875;8.36786210788519e-07;1.07701096629101e-06
-12.759375;8.43638409424153e-07;1.06362549963337e-06
-12.75;8.47971569929463e-07;1.04781397826108e-06
-12.740625;8.49764329933079e-07;1.02972654255045e-06
-12.73125;8.49016806693231e-07;1.00953260080839e-06
-12.721875;8.45750637413337e-07;9.87419433011166e-07
-12.7125;8.4000882925536e-07;9.63590628139791e-07
-12.703125;8.31855432949326e-07;9.38264397436456e-07
-12.69375;8.21375029092741e-07;9.11671742501027e-07
-12.684375;8.08672045603342e-07;8.84054533702077e-07
-12.675;7.93869902728523e-07;8.5566348074485e-07
-12.665625;7.77109992530506e-07;8.26756029505156e-07
-12.65625;7.58550504163727e-07;7.97594199384953e-07
-12.646875;7.38365107241563e-07;7.68442379991842e-07
-12.6375;7.16741496111992e-07;7.39565102343219e-07
-12.628125;6.93879812366939e-07;7.11224805456788e-07
-12.61875;6.69990961363223e-07;6.83679618868733e-07
-12.609375;6.45294831494906e-07;6.57181177784588e-07
-12.6;6.20018431517127e-07;6.31972487636435e-07
-12.590625;5.94393966920345e-07;6.08285857082246e-07
-12.58125;5.6865686707837e-07;5.86340925820863e-07
-12.571875;5.43043779331458e-07;5.66342783910733e-07
-12.5625;5.17790550200986e-07;5.48480219575836e-07
-12.553125;4.93130209310459e-07;5.32924098157028e-07
-12.54375;4.69290973558621e-07;5.19825891016353e-07
-12.534375;4.46494286885151e-07;5.09316363709744e-07
-12.525;4.24952915567568e-07;5.0150443658244e-07
-12.515625;4.04869112777493e-07;4.96476230618503e-07
-12.50625;3.86432869662688e-07;4.94294300655682e-07
-12.496875;3.69820267544068e-07;4.94997066757669e-07
-12.4875;3.55191944204934e-07;4.98598449530504e-07
-12.478125;3.42691692676736e-07;5.05087710830433e-07
-12.46875;3.32445195546911e-07;5.14429501821948e-07
-12.459375;3.24558916738517e-07;5.26564117546921e-07
-12.45;3.19119151394204e-07;5.41407961395719e-07
-12.440625;3.16191248802738e-07;5.58854208377841e-07
-12.43125;3.15819010258587e-07;5.78773666332966e-07
-12.421875;3.18024273367285e-07;6.01015830366591e-07
-12.4125;3.22806679109315e-07;6.25410114072744e-07
-12.403125;3.30143631135358e-07;6.51767256721963e-07
-12.39375;3.39990445808565e-07;6.79880891150402e-07
-12.384375;3.52280687338206e-07;7.09529254368999e-07
-12.375;3.669266956176e-07;7.40477036816329e-07
-12.365625;3.8382029156196e-07;7.72477347098967e-07
-12.35625;4.0283366430569e-07;8.05273778207467e-07
-12.346875;4.23820422604498e-07;8.38602558229595e-07
-12.3375;4.46616816552104e-07;8.72194771601156e-07
-12.328125;4.7104310015649e-07;9.05778620569501e-07
-12.31875;4.96905042804403e-07;9.39081722709135e-07
-12.309375;5.23995561861268e-07;9.71833414176638e-07
-12.3;5.52096475359208e-07;1.00376704545603e-06
-12.290625;5.80980348570139e-07;1.03462224896796e-06
-12.28125;6.10412426599833e-07;1.06414715325396e-06
-12.271875;6.4015263368414e-07;1.09210053657747e-06
-12.2625;6.69957623960581e-07;1.11825389161158e-06
-12.253125;6.99582864914155e-07;1.14239338952679e-06
-12.24375;7.28784737171386e-07;1.16432172473167e-06
-12.234375;7.57322623471867e-07;1.18385981615735e-06
-12.225;7.84960995180207e-07;1.20084837584587e-06
-12.215625;8.11471438835003e-07;1.21514929488496e-06
-12.20625;8.36634644477479e-07;1.22664686783774e-06
-12.196875;8.60242310504324e-07;1.23524882356412e-06
-12.1875;8.82098965350046e-07;1.24088716586216e-06
-12.178125;9.02023678619576e-07;1.24351880445986e-06
-12.16875;9.1985165648146e-07;1.24312598358047e-06
-12.159375;9.35435702966291e-07;1.23971649845915e-06
-12.15;9.48647530205689e-07;1.23332369019014e-06
-12.140625;9.59378915130892e-07;1.22400623093741e-06
-12.13125;9.67542683551026e-07;1.21184769382368e-06
-12.121875;9.73073524101654e-07;1.19695591522145e-06
-12.1125;9.75928601204607e-07;1.17946213785319e-06
-12.103125;9.76088000267538e-07;1.15951997727273e-06
-12.09375;9.73554957125393e-07;1.13730417515533e-06
-12.084375;9.68355901041282e-07;1.11300918438007e-06
-12.075;9.60540295617514e-07;1.08684758009924e-06
-12.065625;9.50180284944911e-07;1.05904831687721e-06
-12.05625;9.37370142810655e-07;1.02985484311593e-06
-12.046875;9.22225530022701e-07;9.9952308613465e-07
-12.0375;9.0488256769954e-07;9.6831932944241e-07
-12.028125;8.8549673529495e-07;9.3651800032828e-07
-12.01875;8.6424159610942e-07;9.04399377942685e-07
-12.009375;8.41307369803905e-07;8.72247255024237e-07
-12;8.16899346262632e-07;8.40346547147458e-07
-11.990625;7.9123618757339e-07;8.08980914787603e-07
-11.98125;7.64548087213514e-07;7.78430360738234e-07
-11.971875;7.37074843081478e-07;7.48968872579643e-07
-11.9625;7.09063833265861e-07;7.20862101421419e-07
-11.953125;6.80767927726713e-07;6.9436511074696e-07
-11.94375;6.52443340035758e-07;6.6972019933711e-07
-11.934375;6.24347450087218e-07;6.47154835780849e-07
-11.925;5.96736611578408e-07;6.26879713548859e-07
-11.915625;5.69863955072206e-07;6.0908693222986e-07
-11.90625;5.4397721930973e-07;5.93948340097791e-07
-11.896875;5.19316619467768e-07;5.81614040213592e-07
-11.8875;4.96112777961205e-07;5.72211081968514e-07
-11.878125;4.74584718621384e-07;5.65842323820585e-07
-11.86875;4.54937975373979e-07;5.62585528711882e-07
-11.859375;4.37362790433681e-07;5.624926375922e-07
-11.85;4.2203245108446e-07;5.65589279212928e-07
-11.840625;4.0910175915316e-07;5.71874487639329e-07
-11.83125;3.98705662128636e-07;5.81320655638186e-07
-11.821875;3.90958041268525e-07;5.93873697792589e-07
-11.8125;3.85950684889135e-07;6.09453452083124e-07
-11.803125;3.83752439103799e-07;6.27954286931637e-07
-11.79375;3.84408561995988e-07;6.49245939702962e-07
-11.784375;3.87940268798961e-07;6.73174551314557e-07
-11.775;3.94344490180462e-07;6.99563915894805e-07
-11.765625;4.03593825112723e-07;7.28216900872658e-07
-11.75625;4.15636720012961e-07;7.58917079054971e-07
-11.746875;4.30397837046094e-07;7.91430493619122e-07
-11.7375;4.47778639097771e-07;8.25507598561428e-07
-11.728125;4.67658170177015e-07;8.60885327558223e-07
-11.71875;4.89894034089779e-07;8.97289285401491e-07
-11.709375;5.14323552381281e-07;9.34436032187004e-07
-11.7;5.40765106966339e-07;9.72035460336997e-07
-11.690625;5.69019649554653e-07;1.00979323489331e-06
-11.68125;5.98872357734138e-07;1.04741326577351e-06
-11.671875;6.30094437830973e-07;1.08460020954028e-06
-11.6625;6.62445053353201e-07;1.12106197172581e-06
-11.653125;6.95673362072239e-07;1.15651219425455e-06
-11.64375;7.29520641038256e-07;1.19067268259215e-06
-11.634375;7.63722497108318e-07;1.22327580080504e-06
-11.625;7.98011122066851e-07;1.25406675799407e-06
-11.615625;8.32117595271997e-07;1.28280581360556e-06
-11.60625;8.65774193226445e-07;1.30927034656357e-06
-11.596875;8.98716712398358e-07;1.33325680727731e-06
-11.5875;9.30686752678001e-07;1.35458249230904e-06
-11.578125;9.61433979242121e-07;1.37308717517372e-06
-11.56875;9.90718305324797e-07;1.38863452912765e-06
-11.559375;1.01831201467409e-06;1.40111337913103e-06
-11.55;1.04400177144725e-06;1.41043872662605e-06
-11.540625;1.06759052759709e-06;1.41655257698904e-06
-11.53125;1.088899291488e-06;1.41942452634119e-06
-11.521875;1.10776875794887e-06;1.41905214439324e-06
-11.5125;1.12406077241992e-06;1.41546110098742e-06
-11.503125;1.13765962464696e-06;1.40870507610396e-06
-11.49375;1.14847316140367e-06;1.39886543675814e-06
-11.484375;1.15643370249817e-06;1.38605067943745e-06
-11.475;1.16149875198836e-06;1.37039564409736e-06
-11.465625;1.163651507172e-06;1.3520605175554e-06
-11.45625;1.1629011545646e-06;1.33122962557339e-06
-11.446875;1.15928294527718e-06;1.30811001642374e-06
-11.4375;1.15285805493813e-06;1.2829298581816e-06
-11.428125;1.14371323427117e-06;1.2559366650646e-06
-11.41875;1.13196023923914e-06;1.22739536154776e-06
-11.409375;1.117735058499e-06;1.19758619447915e-06
-11.4;1.1011969334932e-06;1.16680252748802e-06
