# omega;Arpes occ;Arpes tot
-15;4.4178153572201e-08;2.78478313198506e-07
-14.990625;4.38913341074341e-08;2.99066344559672e-07
-14.98125;4.56708553531709e-08;3.21727380938008e-07
-14.971875;4.95109347898122e-08;3.46278652151862e-07
-14.9625;5.53882973378189e-08;3.72521412415965e-07
-14.953125;6.32623522441328e-08;4.00242607364031e-07
-14.94375;7.30755157868796e-08;4.2921665748343e-07
-14.934375;8.47536744005885e-08;4.59207346127988e-07
-14.925;9.82068054643466e-08;4.89969813194671e-07
-14.915625;1.13329710487265e-07;5.21252596694114e-07
-14.90625;1.3000290138342e-07;5.5279975846043e-07
-14.896875;1.4809358760302e-07;5.84353021977913e-07
-14.8875;1.6745680382143e-07;6.15653958061174e-07
-14.878125;1.87936612907841e-07;6.46446148270568e-07
-14.86875;2.09367428066779e-07;6.76477344588547e-07
-14.859375;2.31575403514671e-07;7.05501597325751e-07
-14.85;2.54379912405629e-07;7.33281326978952e-07
-14.840625;2.77595060210281e-07;7.59589319292878e-07
-14.83125;3.01031274363931e-07;7.84210652793974e-07
-14.821875;3.24496901197154e-07;8.06944500926345e-07
-14.8125;3.47799844660524e-07;8.27605841146959e-07
-14.803125;3.70749187408168e-07;8.46027006062007e-07
-14.79375;3.93156828056887e-07;8.62059111551065e-07
-14.784375;4.14839080899255e-07;8.75573315784955e-07
-14.775;4.35618241904072e-07;8.86461909437421e-07
-14.765625;4.55324111916753e-07;8.94639236720658e-07
-14.75625;4.73795454775132e-07;9.00042425780616e-07
-14.746875;4.90881379608691e-07;9.02631928153441e-07
-14.7375;5.06442637237565e-07;9.02391862793987e-07
-14.728125;5.20352819826207e-07;8.99330159608363e-07
-14.71875;5.32499456994283e-07;8.93478509520216e-07
-14.709375;5.42784988199347e-07;8.84892106379269e-07
-14.7;5.51127607884271e-07;8.73649192516763e-07
-14.690625;5.57461992673181e-07;8.59850418657953e-07
-14.68125;5.61739866780637e-07;8.43617997999918e-07
-14.671875;5.63930444546555e-07;8.25094699468522e-07
-14.6625;5.64020705722415e-07;8.044426488085e-07
-14.653125;5.62015539353741e-07;7.81841977637743e-07
-14.64375;5.57937717176313e-07;7.57489318912514e-07
-14.634375;5.51827725653957e-07;7.31596151508312e-07
-14.625;5.4374344446779e-07;7.04387040415209e-07
-14.615625;5.33759678003931e-07;6.76097743093453e-07
-14.60625;5.21967533996952e-07;6.46973235476819e-07
-14.596875;5.08473676941217e-07;6.17265655098e-07
-14.5875;4.93399432733188e-07;5.87232176900915e-07
-14.578125;4.76879781227674e-07;5.57132858251918e-07
-14.56875;4.590622157088e-07;5.27228444590718e-07
-14.559375;4.40105510936406e-07;4.97778177157001e-07
-14.55;4.20178382206947e-07;4.69037608045927e-07
-14.540625;3.99458057512448e-07;4.41256443341433e-07
-14.53125;3.78128783288097e-07;4.14676441366321e-07
-14.521875;3.56380261621981e-07;3.89529368007686e-07
-14.5125;3.34406040302041e-07;3.6603503932287e-07
-14.503125;3.12401868545882e-07;3.44399462014288e-07
-14.49375;2.90564028528855e-07;3.24813088073317e-07
-14.484375;2.69087667097784e-07;3.0744920356401e-07
-14.475;2.48165127490241e-07;2.92462453659461e-07
-14.465625;2.27984301924152e-07;2.79987530030678e-07
-14.45625;2.08727028971551e-07;2.70138019634553e-07
-14.446875;1.90567527310169e-07;2.63005434942977e-07
-14.4375;1.73670903526587e-07;2.58658425616189e-07
-14.428125;1.58191726480049e-07;2.57142187743823e-07
-14.41875;1.4427269271784e-07;2.58478055639735e-07
-14.409375;1.32043395559805e-07;2.62663318458759e-07
-14.4;1.21619191030615e-07;2.69671209839682e-07
-14.390625;1.13100200824818e-07;2.79451128911553e-07
-14.38125;1.06570424938157e-07;2.9192903135328e-07
-14.371875;1.02097005107703e-07;3.07008050669387e-07
-14.3625;9.97296231783365e-08;3.24569283557864e-07
-14.353125;9.95000463647544e-08;3.44472778432378e-07
-14.34375;1.01421829183359e-07;3.66558692722221e-07
-14.334375;1.05490164150072e-07;3.90648626728558e-07
-14.325;1.11681894832374e-07;4.16547104344771e-07
-14.315625;1.19955679066287e-07;4.44043206829412e-07
-14.30625;1.30252308998834e-07;4.72912332662471e-07
-14.296875;1.42495187510254e-07;5.02918077481891e-07
-14.2875;1.56590947060778e-07;5.33814211094728e-07
-14.278125;1.72430216258147e-07;5.65346740816716e-07
-14.26875;1.89888524000778e-07;5.97256042126414e-07
-14.259375;2.08827329423802e-07;6.29279035605609e-07
-14.25;2.29095178389507e-07;6.61151397454335e-07
-14.240625;2.50528968831984e-07;6.92609779529646e-07
-14.23125;2.72955316861495e-07;7.23394028297775e-07
-14.221875;2.96192012665679e-07;7.53249366412039e-07
-14.2125;3.20049555838437e-07;7.81928548022494e-07
-14.203125;3.44332752707421e-07;8.09193935946685e-07
-14.19375;3.68842368192388e-07;8.34819516276923e-07
-14.184375;3.93376803178067e-07;8.58592789862674e-07
-14.175;4.17733818031309e-07;8.80316593211756e-07
-14.165625;4.41712234422407e-07;8.99810744621179e-07
-14.15625;4.65113660774565e-07;9.16913592723442e-07
-14.146875;4.87744166345805e-07;9.31483366481437e-07
-14.1375;5.09415951541542e-07;9.43399406453462e-07
-14.128125;5.29948942731734e-07;9.5256317685585e-07
-14.11875;5.49172338685001e-07;9.58899121200669e-07
-14.109375;5.66926072940233e-07;9.62355305960782e-07
-14.1;5.83062195438085e-07;9.62903885774767e-07
-14.090625;5.97446144828629e-07;9.60541345884927e-07
-14.08125;6.09957912063858e-07;9.55288553944588e-07
-14.071875;6.20493085945144e-07;9.47190603732273e-07
-14.0625;6.28963762593898e-07;9.36316452260092e-07
-14.053125;6.35299316932318e-07;9.22758356511633e-07
-14.04375;6.39447030433452e-07;9.06631116103427e-07
-14.034375;6.41372567988512e-07;8.8807112536501e-07
-14.025;6.41060297458741e-07;8.67235242257024e-07
-14.015625;6.38513448709032e-07;8.44299480888819e-07
-14.00625;6.33754118467917e-07;8.19457547391137e-07
-13.996875;6.2682311264202e-07;7.92919227346098e-07
-13.9875;6.17779622220884e-07;7.64908623150277e-07
-13.978125;6.06700756242469e-07;7.3566229091633e-07
-13.96875;5.93680908501395e-07;7.054272505315e-07
-13.959375;5.78830988872723e-07;6.74458925364445e-07
-13.95;5.62277493480774e-07;6.43018982000177e-07
-13.940625;5.44161471856742e-07;6.11373157881747e-07
-13.93125;5.24637334293603e-07;5.79789005027487e-07
-13.921875;5.03871575525365e-07;5.48533661985416e-07
-13.9125;4.82041362200667e-07;5.17871582580537e-07
-13.903125;4.59333062655246e-07;4.88062333181464e-07
-13.89375;4.35940664828787e-07;4.59358388128212e-07
-13.884375;4.12064148207836e-07;4.32003010650776e-07
-13.875;3.87907789195937e-07;4.06228192230311e-07
-13.865625;3.63678441272502e-07;3.82252702069693e-07
-13.85625;3.39583776704806e-07;3.60280229771377e-07
-13.846875;3.15830527450302e-07;3.40497665718411e-07
-13.8375;2.92622733648754e-07;3.23073519377173e-07
-13.828125;2.70160005882073e-07;3.08156488069481e-07
-13.81875;2.48635826396099e-07;2.95874193544061e-07
-13.809375;2.28235902001895e-07;2.86332097386054e-07
-13.8;2.09136580678613e-07;2.79612603098297e-07
-13.790625;1.91503345508168e-07;2.75774349905596e-07
-13.78125;1.75489396583886e-07;2.74851706416082e-07
-13.771875;1.61234342036748e-07;2.76854471600542e-07
-13.7625;1.48863002960382e-07;2.81767786118984e-07
-13.753125;1.38484334788331e-07;2.89552242363247e-07
-13.74375;1.3019049752004e-07;3.00144216258529e-07
-13.734375;1.24056054348401e-07;3.1345639037829e-07
-13.725;1.20137335885021e-07;3.29378496169746e-07
-13.715625;1.18471936906155e-07;3.47778224954181e-07
-13.70625;1.19078405639841e-07;3.68502363452817e-07
-13.696875;1.21956062372909e-07;3.91378069808289e-07
-13.6875;1.27085013637172e-07;4.16214352651009e-07
-13.678125;1.34426302703592e-07;4.42803673623663e-07
-13.66875;1.43922255361297e-07;4.70923725493004e-07
-13.659375;1.55496962129465e-07;5.00339312998201e-07
-13.65;1.6905693439109e-07;5.30804360652249e-07
-13.640625;1.84491904649521e-07;5.62064009565463e-07
-13.63125;2.01675783906944e-07;5.93856800229705e-07
-13.621875;2.20467746541242e-07;6.2591690833071e-07
-13.6125;2.40713453603961e-07;6.5797642752939e-07
-13.603125;2.62246395221775e-07;6.89767675068781e-07
-13.59375;2.84889339436125e-07;7.21025498865782e-07
-13.584375;3.08455880327114e-07;7.51489571070059e-07
-13.575;3.32752070971812e-07;7.80906646972405e-07
-13.565625;3.57578127389641e-07;8.09032771043049e-07
-13.55625;3.82730188988473e-07;8.35635410620475e-07
-13.546875;4.08002119822713e-07;8.60495499292451e-07
-13.5375;4.33187339439609e-07;8.83409376218487e-07
-13.528125;4.58080665581871e-07;9.04190600340217e-07
-13.51875;4.82480149504515e-07;9.22671627554678e-07
-13.509375;5.0618889855108e-07;9.38705336681853e-07
-13.5;5.29016857747952e-07;9.52166388485818e-07
-13.490625;5.50782552296946e-07;9.62952414938572e-07
-13.48125;5.71314749661732e-07;9.70985010640561e-07
-13.471875;5.90454067289921e-07;9.76210546609342e-07
-13.4625;6.08054463906999e-07;9.78600765957393e-07
-13.453125;6.23984651329512e-07;9.78153189732402e-07
-13.44375;6.38129367968938e-07;9.74891299455787e-07
-13.434375;6.50390546765198e-07;9.68864520765658e-07
-13.425;6.60688333317904e-07;9.60147991593011e-07
-13.415625;6.68961964468488e-07;9.48842120008085e-07
-13.40625;6.75170496382583e-07;9.35071945202746e-07
-13.396875;6.79293372140226e-07;9.18986291236164e-07
-13.3875;6.81330828367821e-07;9.007567377873e-07
-13.378125;6.81304136911582e-07;8.80576402019389e-07
-13.36875;6.7925567593348e-07;8.58658551936131e-07
-13.359375;6.75248835237282e-07;8.3523505825057e-07
-13.35;6.69367755229842e-07;8.10554702882425e-07
-13.340625;6.61716899047139e-07;7.84881351268168e-07
-13.33125;6.52420463882186e-07;7.58492009357405e-07
-13.321875;6.41621638419237e-07;7.31674782985506e-07
-13.3125;6.29481711718575e-07;7.04726754735311e-07
-13.303125;6.16179036982794e-07;6.77951796433628e-07
-13.29375;6.01907866165354e-07;6.51658333273123e-07
-13.284375;5.8687706516351e-07;6.26157093150339e-07
-13.275;5.71308711085007e-07;6.01758834929973e-07
-13.265625;5.55436599075127e-07;5.78772103491043e-07
-13.25625;5.3950465855269e-07;5.57501011765563e-07
-13.246875;5.23765302673458e-07;5.38243076121512e-07
-13.2375;5.08477714429419e-07;5.21287121957052e-07
-13.228125;4.9390609809237e-07;5.06911279611175e-07
-13.21875;4.80317897963621e-07;4.9538108864156e-07
-13.209375;4.67982013707255e-07;4.86947726117746e-07
-13.2;4.57167009507896e-07;4.81846366434167e-07
-13.190625;4.48139357031956e-07;4.80294709772015e-07
-13.18125;4.41161701900251e-07;4.824916586788e-07
-13.171875;4.36491194365581e-07;4.8861619456661e-07
-13.1625;4.3437787237388e-07;4.98826419549467e-07
-13.153125;4.3506313690297e-07;5.13258817588829e-07
-13.14375;4.38778317330868e-07;5.32027706503517e-07
-13.134375;4.45743339831068e-07;5.55224901916096e-07
-13.125;4.56165518638562e-07;5.82919596912136e-07
-13.115625;4.70238479892797e-07;6.15158458635648e-07
-13.10625;4.88141219059616e-07;6.51965933884653e-07
-13.096875;5.10037305505033e-07;6.93344766316077e-07
-13.0875;5.36074249354714e-07;7.39276729267452e-07
-13.078125;5.66383025550904e-07;7.89723557944819e-07
-13.06875;6.01077759633916e-07;8.44628075062543e-07
-13.059375;6.40255585628112e-07;9.0391549917411e-07
-13.05;6.83996679379364e-07;9.67494945115546e-07
-13.040625;7.3236444817976e-07;1.03526106149043e-06
-13.03125;7.85405903142342e-07;1.10709583992611e-06
-13.021875;8.431521877199e-07;1.18287054751266e-06
-13.0125;9.05619276108482e-07;1.26244777994007e-06
-13.003125;9.72808813819324e-07;1.34568361127449e-06
-12.99375;1.04470912045444e-06;1.43242982733365e-06
-12.984375;1.12129632047298e-06;1.52253622551018e-06
-12.975;1.20253561440191e-06;1.61585295421542e-06
-12.965625;1.28838265262664e-06;1.71223286761929e-06
-12.95625;1.37878503181873e-06;1.81153389830546e-06
-12.946875;1.47368386997951e-06;1.91362139168363e-06
-12.9375;1.57301547282484e-06;2.01837042311032e-06
-12.928125;1.67671304838036e-06;2.12566802794458e-06
-12.91875;1.7847084822302e-06;2.23541537714999e-06
-12.909375;1.89693413986242e-06;2.34752983843322e-06
-12.9;2.01332468031614e-06;2.4619469198993e-06
-12.890625;2.13381887057831e-06;2.57862208070962e-06
-12.88125;2.25836138580176e-06;2.69753238987083e-06
-12.871875;2.38690456664435e-06;2.81867801098701e-06
-12.8625;2.51941012367561e-06;2.94208350255364e-06
-12.853125;2.65585078079625e-06;3.06779892826406e-06
-12.84375;2.79621182737996e-06;3.19590075507117e-06
-12.834375;2.94049256878563e-06;3.32649253159569e-06
-12.825;3.08870766517154e-06;3.45970533898662e-06
-12.815625;3.24088834407222e-06;3.59569802240925e-06
-12.80625;3.39708346179063e-06;3.73465716342878e-06
-12.796875;3.55736042111034e-06;3.8767968321804e-06
-12.7875;3.72180591892277e-06;4.02235809009644e-06
-12.778125;3.89052652647103e-06;4.17160825727278e-06
-12.76875;4.06364907839973e-06;4.3248399401698e-06
-12.759375;4.2413208851524e-06;4.48236983010954e-06
-12.75;4.42370974418943e-06;4.64453728285721e-06
-12.740625;4.61100376353767e-06;4.81170267911323e-06
-12.73125;4.80341097647373e-06;4.98424557626886e-06
-12.721875;5.00115876886545e-06;5.16256268046141e-06
-12.7125;5.20449310296569e-06;5.34706562658839e-06
-12.703125;5.41367755305808e-06;5.53817861012296e-06
-12.69375;5.62899214514025e-06;5.73633585441791e-06
-12.684375;5.85073202035014e-06;5.94197896854651e-06
-12.675;6.07920592207619e-06;6.15555418376832e-06
-12.665625;6.31473451460056e-06;6.37750950278691e-06
-12.65625;6.55764854853157e-06;6.60829178159486e-06
-12.646875;6.80828688576793e-06;6.84834376342214e-06
-12.6375;7.06699439078856e-06;7.09810108532667e-06
-12.628125;7.33411970677374e-06;7.35798927979116e-06
-12.61875;7.61001293498932e-06;7.6284207964314e-06
-12.609375;7.89502322809111e-06;7.90979206237586e-06
-12.6;8.18949631477597e-06;8.20248060249243e-06
-12.590625;8.49377197909751e-06;8.50684224055326e-06
-12.58125;8.80818150707505e-06;8.82320841159202e-06
-12.571875;9.13304512013987e-06;9.1518835844797e-06
-12.5625;9.4686694155525e-06;9.49314283480877e-06
-12.553125;9.81534483246715e-06;9.84722957371947e-06
-12.54375;1.0173343161507e-05;1.02143534531734e-05
-12.534375;1.05429151155757e-05;1.05946884610561e-05
-12.525;1.09242879819538e-05;1.09883712193998e-05
-12.515625;1.13176633718817e-05;1.13954995031627e-05
-12.50625;1.17232150844852e-05;1.1816130981277e-05
-12.496875;1.2141087101623e-05;1.2250282194155e-05
-12.4875;1.25713917267907e-05;1.26979277746371e-05
-12.478125;1.30142078875697e-05;1.31589999144543e-05
-12.46875;1.34695796043783e-05;1.36333880803668e-05
-12.459375;1.39375146490259e-05;1.41209389798741e-05
-12.45;1.44179833931249e-05;1.46214567802534e-05
-12.440625;1.49109178619193e-05;1.51347035706863e-05
-12.43125;1.54162109953024e-05;1.56604000669984e-05
-12.421875;1.59337161279393e-05;1.61982265549257e-05
-12.4125;1.64632466841713e-05;1.67478240544293e-05
-12.403125;1.70045760978481e-05;1.73087957052649e-05
-12.39375;1.75574379547478e-05;1.78807083573678e-05
-12.384375;1.81215263517224e-05;1.8463094347958e-05
-12.375;1.86964964803544e-05;1.90554534603979e-05
-12.365625;1.92819654193347e-05;1.96572550412825e-05
-12.35625;1.98775131392292e-05;2.02679402605715e-05
-12.346875;2.04826837020736e-05;2.08869244961976e-05
-12.3375;2.10969866612513e-05;2.15135998290694e-05
-12.328125;2.17198986317324e-05;2.21473376163404e-05
-12.31875;2.23508650383419e-05;2.27874911373145e-05
-12.309375;2.2989302013882e-05;2.34333982806318e-05
-12.3;2.36345984454867e-05;2.40843842579502e-05
-12.290625;2.42861181429471e-05;2.47397643219612e-05
-12.28125;2.49432021200262e-05;2.53988464617846e-05
-12.271875;2.56051709701086e-05;2.60609340679475e-05
-12.2625;2.62713273193963e-05;2.67253285352651e-05
-12.253125;2.69409583394552e-05;2.73913317929971e-05
-12.24375;2.76133383021145e-05;2.8058248739268e-05
-12.234375;2.82877311489436e-05;2.87253895569498e-05
-12.225;2.89633930840993e-05;2.93920719175981e-05
-12.215625;2.96395751319813e-05;3.0057623024758e-05
-12.20625;3.03155256819042e-05;3.07213815146974e-05
-12.196875;3.09904929738966e-05;3.13826991813774e-05
-12.1875;3.16637275256716e-05;3.20409425292157e-05
-12.178125;3.23344844737189e-05;3.2695494131507e-05
-12.16875;3.3002025822251e-05;3.33457538013917e-05
-12.159375;3.36656225824486e-05;3.39911395650308e-05
-12.15;3.43245567839248e-05;3.46310884258384e-05
-12.140625;3.49781233562409e-05;3.52650569315549e-05
-12.13125;3.5625631860936e-05;3.589252153741e-05
-12.121875;3.62664080762105e-05;3.65129787723293e-05
-12.1125;3.68997954031732e-05;3.71259451961311e-05
-12.103125;3.75251561264717e-05;3.77309571904178e-05
-12.09375;3.81418724805064e-05;3.83275705433362e-05
-12.084375;3.87493475506537e-05;3.89153598772852e-05
-12.075;3.93470059926147e-05;3.94939179081363e-05
-12.065625;3.99342945769294e-05;4.00628545598821e-05
-12.05625;4.05106825551579e-05;4.06217959428669e-05
-12.046875;4.10756618527992e-05;4.11703832091443e-05
-12.0375;4.16287470946843e-05;4.17082713069746e-05
-12.028125;4.21694754713838e-05;4.22351276506348e-05
-12.01875;4.26974064474601e-05;4.27506307161983e-05
-12.009375;4.32121213302986e-05;4.32544685952541e-05
-12;4.37132226918614e-05;4.37463375007722e-05
-11.990625;4.42003336886883e-05;4.42259402882332e-05
-11.98125;4.46730972476012e-05;4.46929849550687e-05
-11.971875;4.51311751716339e-05;4.51471831867833e-05
-11.9625;4.55742471528744e-05;4.55882489397215e-05
-11.953125;4.60020097239313e-05;4.60158970939778e-05
-11.94375;4.64141751487143e-05;4.64298421784597e-05
-11.934375;4.68104702822735e-05;4.68297972049399e-05
-11.925;4.71906354097494e-05;4.72154726183208e-05
-11.915625;4.75544230736422e-05;4.75865753677294e-05
-11.90625;4.79015969183457e-05;4.79428081307134e-05
-11.896875;4.82319305585329e-05;4.8283868693096e-05
-11.8875;4.85452064934413e-05;4.86094495018308e-05
-11.878125;4.8841215065315e-05;4.89192373774922e-05
-11.86875;4.91197535096305e-05;4.92129134431483e-05
-11.859375;4.93806250693084e-05;4.94901532145062e-05
-11.85;4.96236382187594e-05;4.97506269068984e-05
-11.840625;4.98486059882245e-05;4.99939999272111e-05
-11.83125;5.00553454148042e-05;5.02199335775116e-05
-11.821875;5.0243677112089e-05;5.04280859412756e-05
-11.8125;5.04134249831576e-05;5.06181129776683e-05
-11.803125;5.05644160665955e-05;5.07896697897896e-05
-11.79375;5.06964805380602e-05;5.09424120878084e-05
-11.784375;5.08094518523883e-05;5.10759978109687e-05
-11.775;5.0903167045148e-05;5.11900889239769e-05
-11.765625;5.09774671729426e-05;5.1284353340092e-05
-11.75625;5.1032197920767e-05;5.13584670095507e-05
-11.746875;5.10672103378793e-05;5.14121160932823e-05
-11.7375;5.10823617267033e-05;5.14449992594958e-05
-11.728125;5.10775166618975e-05;5.14568300557839e-05
-11.71875;5.10525481404723e-05;5.14473393470255e-05
-11.709375;5.10073388424926e-05;5.14162777878578e-05
-11.7;5.09417825061974e-05;5.13634183274972e-05
-11.690625;5.08557853988603e-05;5.12885587158155e-05
-11.68125;5.07492678623504e-05;5.11915239765699e-05
-11.671875;5.06221659326547e-05;5.10721688453426e-05
-11.6625;5.04744330123085e-05;5.09303801410068e-05
-11.653125;5.03060415786243e-05;5.0766079053982e-05
-11.64375;5.011698490745e-05;5.0579223306288e-05
-11.634375;4.99072788104255e-05;5.0369809210034e-05
-11.625;4.96769633458363e-05;5.01378735474893e-05
-11.615625;4.94261045075999e-05;4.98834953016995e-05
-11.60625;4.9154795852592e-05;4.96067971808327e-05
-11.596875;4.88631600750673e-05;4.93079469578927e-05
-11.5875;4.85513504774322e-05;4.8987158565328e-05
-11.578125;4.82195523573699e-05;4.86446929794261e-05
-11.56875;4.7867984257042e-05;4.82808588331472e-05
-11.559375;4.74968990951903e-05;4.78960127939906e-05
-11.55;4.71065851340545e-05;4.74905596554979e-05
-11.540625;4.66973667938049e-05;4.70649521728824e-05
-11.53125;4.62696052823032e-05;4.66196906026115e-05
-11.521875;4.58236990439158e-05;4.61553219863294e-05
-11.5125;4.53600840043621e-05;4.56724391290994e-05
-11.503125;4.48792336111274e-05;4.51716793162624e-05
-11.49375;4.43816586630852e-05;4.4653722755453e-05
-11.484375;4.38679069181985e-05;4.41192907467427e-05
-11.475;4.33385624756152e-05;4.35691435910135e-05
-11.465625;4.27942449396561e-05;4.30040782589807e-05
-11.45625;4.22356083590477e-05;4.24249258247233e-05
-11.446875;4.1663339939069e-05;4.18325486707359e-05
-11.4375;4.10781585357266e-05;4.12278374922681e-05
-11.428125;4.04808129435027e-05;4.06117081204514e-05
-11.41875;3.98720799695392e-05;3.99850981783219e-05
-11.409375;3.92527623170038e-05;3.93489635849178e-05
-11.4;3.8623686276719e-05;3.87042749461859e-05
